-777.87311982425126,12.600000381469727
-776.63374739947358,26.200000762939453
-775.39461482227671,20.600000381469727
-774.15572204389719,28.200000762939453
-772.91706901559337,16
-771.67865568863454,17
-770.44048201429,12.199999809265137
-769.20254794384346,24
-767.96485342860433,20.200000762939453
-766.7273984198855,25.600000381469727
-765.49018286900719,16
-764.25320672730777,20.799999237060547
-763.01646994613657,22.799999237060547
-761.77997247685744,10
-760.5437142708488,27.200000762939453
-759.307695279489,19.399999618530273
-758.07191545417118,12.600000381469727
-756.83637474631723,29.399999618530273
-755.601073107342,29
-754.36601048868215,19.399999618530273
-753.13118684178153,23.200000762939453
-751.89660211810587,23
-750.66225626912092,17
-749.42814924630693,5.4000000953674316
-748.19428100116238,35.799999237060547
-746.960651485193,13
-745.72726064991912,17
-744.49410844686827,37.200000762939453
-743.26119482758622,9.3999996185302734
-742.02851974362966,22.399999618530273
-740.79608314656616,12
-739.5638849879706,31
-738.331925219436,19.200000762939453
-737.10020379257367,28.399999618530273
-735.86872065898388,21.200000762939453
-734.63747577031063,32.400001525878906
-733.406469078187,27.200000762939453
-732.17570053426061,14.199999809265137
-730.94517009020092,28.399999618530273
-729.71487769768464,21.399999618530273
-728.48482330838851,14.600000381469727
-727.25500687402564,19.399999618530273
-726.02542834630549,26.600000381469727
-724.79608767694481,22.200000762939453
-723.56698481768581,24.799999237060547
-722.33811972027434,34
-721.10949233647079,12.600000381469727
-719.88110261805014,23.600000381469727
-718.652950516791,21.399999618530273
-717.42503598449366,31
-716.19735897296232,11.399999618530273
-714.96991943401918,23.600000381469727
-713.74271731949739,20
-712.515752581241,19.399999618530273
-711.28902517110146,36.799999237060547
-710.06253504095184,33.200000762939453
-708.83628214267264,2
-707.610266428148,39.400001525878906
-706.384487849291,29
-705.15894635801124,21.399999618530273
-703.93364190623652,19.799999237060547
-702.70857444590911,38.400001525878906
-701.48374392898586,22.799999237060547
-700.25915030741635,24.399999618530273
-699.03479353318289,27.399999618530273
-697.81067355827872,26.600000381469727
-696.58679033470071,19.200000762939453
-695.36314381444936,32.400001525878906
-694.1397339495652,3.4000000953674316
-692.91656069207056,42.599998474121094
-691.69362399401689,30.799999237060547
-690.47092380745926,26.399999618530273
-689.24846008447821,35
-688.02623277714338,28
-686.80424183756077,24
-685.58248721782911,18.799999237060547
-684.360968870069,15.399999618530273
-683.13968674641546,34.200000762939453
-681.91864079900733,24.600000381469727
-680.69783097999425,7.1999998092651367
-679.4772572415477,18.399999618530273
-678.25691953584283,18.600000381469727
-677.0368178150693,24.200000762939453
-675.81695203143136,28.799999237060547
-674.59732213714051,27.799999237060547
-673.37792808442282,20.799999237060547
-672.15876982551163,35.799999237060547
-670.9398473126621,24.200000762939453
-669.72116049812939,19.600000381469727
-668.50270933419051,21
-667.28449377312245,32.599998474121094
-666.0665137672313,23
-664.84876926881952,29.799999237060547
-663.63126023020413,16.799999237060547
-662.413986603724,25.600000381469727
-661.19694834172151,24.799999237060547
-659.9801453965465,17.600000381469727
-658.76357772057054,18.799999237060547
-657.54724526617247,42.200000762939453
-656.33114798573843,25.200000762939453
-655.11528583168,36.400001525878906
-653.89965875640155,15
-652.68426671233283,31.600000381469727
-651.46910965191455,23.200000762939453
-650.25418752759469,27.200000762939453
-649.03950029183216,30.399999618530273
-647.825047897104,22.600000381469727
-646.61083029589463,30.799999237060547
-645.39684744069928,27.600000381469727
-644.18309928402778,34
-642.96958577839359,20.200000762939453
-641.75630687633929,25.200000762939453
-640.54326253040745,16.200000762939453
-639.33045269314425,35.799999237060547
-638.117877317125,23.799999237060547
-636.90553635492142,19.799999237060547
-635.69342975913059,34.200000762939453
-634.481557482357,19
-633.26991947720853,12.800000190734863
-632.05851569631523,27.200000762939453
-630.84734609231418,31.799999237060547
-629.63641061784983,19.399999618530273
-628.4257092255848,18.399999618530273
-627.21524186819988,14.800000190734863
-626.00500849836862,24.600000381469727
-624.79500906879366,40.799999237060547
-623.58524353217763,14
-622.37571184124863,33.599998474121094
-621.1664139487275,38.799999237060547
-619.95734980736415,16
-618.74851936991581,36.599998474121094
-617.539922589136,41.799999237060547
-616.33155941781479,16.200000762939453
-615.12342980873473,22.799999237060547
-613.91553371470036,28.600000381469727
-612.70787108852346,30.399999618530273
-611.50044188302672,35.400001525878906
-610.29324605104739,30.799999237060547
-609.08628354543725,51.799999237060547
-607.87955431905175,10.399999618530273
-606.67305832475722,31.200000762939453
-605.46679551544912,38.799999237060547
-604.26076584400835,29.799999237060547
-603.05496926335218,14.600000381469727
-601.849405726387,23.399999618530273
-600.64407518604821,40
-599.438977595275,34
-598.234112907021,37.599998474121094
-597.02948107425073,16.399999618530273
-595.82508204993974,44
-594.62091578707441,29.799999237060547
-593.41698223864842,34
-592.21328135768454,43.200000762939453
-591.009813097191,33.799999237060547
-589.80657741020877,38.400001525878906
-588.60357424978247,32.200000762939453
-587.4008035689676,14.399999618530273
-586.19826532083425,39.599998474121094
-584.99595945845977,40.400001525878906
-583.793885934936,31.200000762939453
-582.5920447033659,31.200000762939453
-581.39043571686307,36.599998474121094
-580.18905892855764,37
-578.98791429158518,38.400001525878906
-577.78700175909034,35
-576.58632128423778,40
-575.38587282020308,28.399999618530273
-574.1856563201618,30.399999618530273
-572.98567173731681,23
-571.78591902487278,21.600000381469727
-570.58639813603986,46.799999237060547
-569.38710902406274,35.599998474121094
-568.18805164217156,44
-566.98922594362557,27.200000762939453
-565.790631881684,26
-564.59226940962253,20.600000381469727
-563.39413848073127,36.400001525878906
-562.19623904831133,29
-560.99857106566742,32.200000762939453
-559.80113448612792,30
-558.60392926301938,21.600000381469727
-557.40695534968654,26
-556.21021269949415,22.200000762939453
-555.0137012658015,28.600000381469727
-553.81742100199153,24.799999237060547
-552.62137186145628,34.400001525878906
-551.4255537975896,29.799999237060547
-550.22996676381626,12.199999809265137
-549.03461071355377,35.799999237060547
-547.8394856002451,40.400001525878906
-546.64459137733138,33.400001525878906
-545.449927998272,23.200000762939453
-544.25549541654073,43.200000762939453
-543.06129358562066,36.799999237060547
-541.86732245900566,36.400001525878906
-540.67358199019873,18
-539.48007213271376,17.600000381469727
-538.28679284007922,28.600000381469727
-537.09374406584539,33.400001525878906
-535.900925763548,32
-534.70833788675736,41
-533.51598038904558,33.599998474121094
-532.32385322399932,31.799999237060547
-531.13195634520889,27.600000381469727
-529.94028970629006,21.600000381469727
-528.74885326085314,32.599998474121094
-527.55764696253573,29.399999618530273
-526.36667076497724,29
-525.17592462183165,21.399999618530273
-523.985408486762,40
-522.79512231344415,29.600000381469727
-521.60506605556839,14.399999618530273
-520.41523966682871,33.599998474121094
-519.22564310093912,13
-518.0362763116209,33
-516.84713925260257,32.799999237060547
-515.65823187763453,33.200000762939453
-514.46955414046715,43.400001525878906
-513.28110599486718,29.600000381469727
-512.09288739461954,42
-510.90489829350736,37.200000762939453
-509.71713864533194,35.400001525878906
-508.52960840390369,20.600000381469727
-507.3423075230512,35.200000762939453
-506.15523595660488,28.200000762939453
-504.96839365841697,19.200000762939453
-503.78178058233607,36.200000762939453
-502.59539668223624,30.799999237060547
-501.4092419119952,34.200000762939453
-500.223316225507,51
-499.0376195766712,35.799999237060547
-497.85215191940188,18.799999237060547
-496.666913207624,47
-495.48190339527719,29.399999618530273
-494.29712243630638,32.799999237060547
-493.11257028467116,19.799999237060547
-491.928246894342,25.600000381469727
-490.7441522193003,38.799999237060547
-489.56028621353471,38.400001525878906
-488.37664883105754,40.200000762939453
-487.19324002587746,24
-486.01005975202315,26.200000762939453
-484.8271079635324,29.600000381469727
-483.6443846144557,53.400001525878906
-482.46188965885085,22.799999237060547
-481.27962305079018,55.599998474121094
-480.09758474435512,45.799999237060547
-478.91577469364165,34.799999237060547
-477.73419285275304,21.799999237060547
-476.55283917580709,25.600000381469727
-475.37171361693436,42.200000762939453
-474.19081613026719,38
-473.010146669958,36
-471.82970519017181,37.799999237060547
-470.64949164507379,36.400001525878906
-469.46950598885633,33
-468.28974817570452,54.200000762939453
-467.1102181598344,41.599998474121094
-465.93091589545475,34.200000762939453
-464.75184133679977,23.399999618530273
-463.57299443810552,39
-462.39437515362624,50.799999237060547
-461.2159834376198,30.799999237060547
-460.03781924436043,53.599998474121094
-458.85988252813513,27.399999618530273
-457.68217324323632,45.799999237060547
-456.50469134396917,33.200000762939453
-455.32743678465886,54.799999237060547
-454.15040951962692,37.799999237060547
-452.97360950321672,28
-451.79703668977709,43.400001525878906
-450.62069103367321,39.599998474121094
-449.4445724892721,55.599998474121094
-448.26868101096989,52.799999237060547
-447.09301655315357,44.200000762939453
-445.9175790702302,54.799999237060547
-444.74236851661954,41.799999237060547
-443.56738484675407,39.200000762939453
-442.39262801506811,46.799999237060547
-441.21809797601236,30.200000762939453
-440.0437946840575,46.200000762939453
-438.86971809366878,43.200000762939453
-437.69586815933872,46.799999237060547
-436.52224483555256,46
-435.34884807682647,24.200000762939453
-434.17567783767481,33.400001525878906
-433.00273407262466,44
-431.83001673621948,35.200000762939453
-430.65752578300453,41.400001525878906
-429.4852611675542,42.799999237060547
-428.31322284443013,53.400001525878906
-427.14141076821943,35
-425.96982489351649,41.200000762939453
-424.79846517493388,40.799999237060547
-423.62733156708055,45.400001525878906
-422.45642402459453,40
-421.28574250211022,42.200000762939453
-420.1152869542766,57
-418.94505733575534,39.599998474121094
-417.77505360122632,43.200000762939453
-416.60527570536397,38.799999237060547
-415.43572360287,33.200000762939453
-414.26639724844608,38.599998474121094
-413.09729659681216,28.200000762939453
-411.92842160268992,72
-410.7597722208302,33.400001525878906
-409.59134840596926,49.400001525878906
-408.42315011287792,31.399999618530273
-407.2551772963252,31
-406.087429911091,37.799999237060547
-404.9199079119735,45.799999237060547
-403.75261125377619,58.400001525878906
-402.58553989131542,42.200000762939453
-401.41869377941293,35.799999237060547
-400.25207287291232,35.200000762939453
-399.08567712666627,36.400001525878906
-397.919506495522,58.200000762939453
-396.75356093436312,43.599998474121094
-395.58784039806596,46.599998474121094
-394.42234484151959,37.400001525878906
-393.25707421963307,51.799999237060547
-392.09202848732275,33.400001525878906
-390.92720759950862,52.799999237060547
-389.76261151112521,31.399999618530273
-388.59824017713072,41
-387.43409355247422,51
-386.27017159212846,24
-385.10647425107527,41
-383.94300148430193,34
-382.77975324681393,58.599998474121094
-381.616729493624,58.599998474121094
-380.453930179754,48.599998474121094
-379.29135526024038,38
-378.129004690134,42.799999237060547
-376.96687842448227,30.399999618530273
-375.80497641835791,39.400001525878906
-374.64329862683917,35.599998474121094
-373.4818450050152,20.799999237060547
-372.32061550798426,52.799999237060547
-371.15961009086277,35.200000762939453
-369.99882870877082,49.400001525878906
-368.83827131683756,29.399999618530273
-367.677937870214,48.200000762939453
-366.51782832404751,33.400001525878906
-365.3579426335109,46.799999237060547
-364.19828075377518,48
-363.03884264003136,36.599998474121094
-361.87962824747046,45.799999237060547
-360.7206375313126,29.799999237060547
-359.56187044677063,56.799999237060547
-358.403326949081,47.400001525878906
-357.24500699348027,40.599998474121094
-356.08691053522307,46.799999237060547
-354.92903752956954,40.200000762939453
-353.771387931798,47.200000762939453
-352.61396169719228,43.200000762939453
-351.45675878105067,44.799999237060547
-350.29977913867333,44.599998474121094
-349.14302272538407,50.400001525878906
-347.98648949651215,35
-346.83017940739046,37.200000762939453
-345.67409241337191,35.400001525878906
-344.51822846982031,26.600000381469727
-343.36258753210313,50.599998474121094
-342.20716955560965,49.200000762939453
-341.05197449572188,60.400001525878906
-339.89700230785638,40.599998474121094
-338.74225294741518,35.400001525878906
-337.58772636983667,37.200000762939453
-336.43342253054652,41.200000762939453
-335.27934138499768,47.799999237060547
-334.12548288865037,45.400001525878906
-332.97184699696481,49.599998474121094
-331.81843366542853,59
-330.66524284953266,39.400001525878906
-329.51227450476654,46.799999237060547
-328.35952858665769,57.799999237060547
-327.20700505071909,42.200000762939453
-326.05470385248555,43.599998474121094
-324.90262494750459,53.200000762939453
-323.75076829132558,44.599998474121094
-322.59913383951789,54
-321.44772154765633,32.400001525878906
-320.29653137132846,27.600000381469727
-319.14556326613092,36.200000762939453
-317.99481718767311,51
-316.84429309157531,67.4000015258789
-315.69399093346874,42.799999237060547
-314.54391066899007,73.5999984741211
-313.39405225379596,44.400001525878906
-312.24441564354129,68.4000015258789
-311.09500079390455,72
-309.94580766056788,56
-308.79683619922253,39.200000762939453
-307.64808636558337,71
-306.49955811535619,60.200000762939453
-305.35125140426862,59
-304.203166188061,48.400001525878906
-303.05530242247733,44.599998474121094
-301.90766006327794,50.599998474121094
-300.76023906623413,58
-299.61303938712081,66.4000015258789
-298.46606098173288,43.400001525878906
-297.31930380586527,58
-296.17276781533837,49
-295.02645296596893,68
-293.88035921359551,49.400001525878906
-292.73448651404942,67
-291.58883482319834,64.199996948242188
-290.44340409690449,67.800003051757813
-289.29819429103554,65.800003051757813
-288.15320536148647,81.4000015258789
-287.0084372641486,59.200000762939453
-285.86388995493689,54
-284.7195633897627,45.400001525878906
-283.57545752455371,59
-282.431572315254,63.799999237060547
-281.28790771781496,88.800003051757813
-280.1444636881879,94
-279.00124018235692,43.599998474121094
-277.8582371562934,74.5999984741211
-276.71545456599597,46.799999237060547
-275.57289236746692,58.799999237060547
-274.43055051671945,51
-273.28842896977221,80
-272.14652768267115,60.200000762939453
-271.00484661145128,58
-269.86338571217493,67.4000015258789
-268.72214494090622,70
-267.581124253722,61.200000762939453
-266.44032360671372,64.5999984741211
-265.29974295597458,70.800003051757813
-264.159382257616,41.799999237060547
-263.01924146776037,61.200000762939453
-261.87932054252815,67
-260.73961943807444,66.199996948242188
-259.60013811053796,79.5999984741211
-258.46087651608468,70.5999984741211
-257.32183461088971,65.5999984741211
-256.18301235113358,73.4000015258789
-255.04440969300595,52.599998474121094
-253.90602659271462,79.4000015258789
-252.76786300647473,59
-251.62991889051045,56.200000762939453
-250.49219420105146,64
-249.35468889435288,58.599998474121094
-248.217402926668,60.400001525878906
-247.08033625425924,70
-245.94348883341445,72.4000015258789
-244.80686062040877,60.599998474121094
-243.67045157154826,69.199996948242188
-242.53426164314442,70.199996948242188
-241.39829079150877,62.799999237060547
-240.26253897297829,55.200000762939453
-239.12700614388814,84
-237.99169226059348,62.200000762939453
-236.85659727945676,76.199996948242188
-235.72172115684771,79
-234.58706384914331,69
-233.4526253127442,91
-232.31840550405468,72
-231.18440437947902,56.599998474121094
-230.05062189545242,65.5999984741211
-228.91705800840282,83.800003051757813
-227.78371267477996,77.800003051757813
-226.65058585103725,54.400001525878906
-225.51767749363898,74.5999984741211
-224.38498755906403,80
-223.2525160037967,60.799999237060547
-222.1202627843395,81.800003051757813
-220.98822785719858,69.4000015258789
-219.85641117888918,64.800003051757813
-218.7248127059429,76.800003051757813
-217.59343239489681,62.599998474121094
-216.46227020230072,90.800003051757813
-215.3313260847226,75.4000015258789
-214.20059999872137,95.4000015258789
-213.07009190087956,74.4000015258789
-211.9398017477979,69.199996948242188
-210.80972949606621,73.4000015258789
-209.67987510230523,78.199996948242188
-208.5502385231357,75
-207.42081971518564,89
-206.29161863510308,68
-205.16263523954149,88.199996948242188
-204.03386948516163,95
-202.90532132864428,79.4000015258789
-201.77699072666474,105.80000305175781
-200.64887763592742,81.4000015258789
-199.52098201313311,88.4000015258789
-198.39330381500076,84.5999984741211
-197.26584299825117,91.4000015258789
-196.13859951962695,104.40000152587891
-195.01157333587253,89.5999984741211
-193.88476440374143,115.40000152587891
-192.75817268001083,118.19999694824219
-191.63179812144881,114
-190.50564068485255,98.5999984741211
-189.3797003270156,118.40000152587891
-188.25397700474423,124.59999847412109
-187.12847067486291,118
-186.00318129420339,123
-184.87810881960104,151.39999389648438
-183.75325320790944,152.60000610351563
-182.62861441598398,143.39999389648438
-181.50419240070187,157.80000305175781
-180.37998711894033,146.19999694824219
-179.25599852759296,170.60000610351563
-178.13222658356062,184
-177.00867124376236,189.19999694824219
-175.88533246510815,220
-174.76221020454068,217
-173.63930441900084,191.19999694824219
-172.51661506544224,206.80000305175781
-171.39414210082759,192.60000610351563
-170.27188548212871,214.39999389648438
-169.14984516633558,228.60000610351563
-168.02802111043638,240.80000305175781
-166.90641327144112,239
-165.78502160636344,284.20001220703125
-164.66384607223154,269
-163.54288662607541,253
-162.4221432249451,276.79998779296875
-161.30161582589426,270.79998779296875
-160.18130438598928,282.20001220703125
-159.06120886230929,280
-157.94132921194432,271.20001220703125
-156.82166539198624,242
-155.70221735953965,268.39999389648438
-154.58298507173095,246.19999694824219
-153.46396848568111,243.39999389648438
-152.34516755853474,265
-151.22658224743282,284.60000610351563
-150.10821250953813,235
-148.99005830202077,258.39999389648438
-147.87211958205626,273.20001220703125
-146.75439630683832,302
-145.63688843355885,288.20001220703125
-144.51959591943705,297
-143.40251872168847,278.79998779296875
-142.28565679753956,322.79998779296875
-141.16901010423499,332.39999389648438
-140.05257859902849,324.39999389648438
-138.93636223917383,330
-137.82036098194294,330.79998779296875
-136.70457478462595,337.60000610351563
-135.58900360449843,377.60000610351563
-134.47364739887416,367.60000610351563
-133.35850612506329,366.20001220703125
-132.24357974038321,369.79998779296875
-131.12886820217136,370.60000610351563
-130.01437146776334,355.79998779296875
-128.90008949451476,353.60000610351563
-127.78602223979033,334
-126.67216966095839,309
-125.55853171540366,301.60000610351563
-124.44510836051813,313.60000610351563
-123.33189955371017,301
-122.2189052523845,295.60000610351563
-121.10612541397313,298
-119.9935599959008,283.39999389648438
-118.88120895561769,277.20001220703125
-117.76907225057403,276
-116.65714983823818,286.79998779296875
-115.54544167607855,294.60000610351563
-114.43394772158354,322
-113.32266793224335,311.79998779296875
-112.21160226556458,305.20001220703125
-111.10075067906291,334.79998779296875
-109.99011313026131,355.39999389648438
-108.87968957669545,360.39999389648438
-107.76947997590833,377.39999389648438
-106.65948428545926,386.79998779296875
-105.54970246290759,431.20001220703125
-104.44013446582903,445.79998779296875
-103.33078025181567,488.20001220703125
-102.22163977845048,566.4000244140625
-101.11271300335284,652
-100.00399988412755,720.20001220703125
-98.8955003784049,830
-97.787214443818812,946.4000244140625
-96.679142038015925,894.20001220703125
-95.571283118651991,837.20001220703125
-94.46363764339003,731
-93.356205569909434,700
-92.248986855895055,704.79998779296875
-91.141981459042654,702.4000244140625
-90.035189337055272,702.79998779296875
-88.928610447654137,669.5999755859375
-87.8222447485623,597
-86.716092197515536,587.5999755859375
-85.610152752264185,569.5999755859375
-84.504426370558576,567.20001220703125
-83.3989130101636,581.79998779296875
-82.29361262886232,578.5999755859375
-81.188525184439641,552
-80.083650634691367,542.5999755859375
-78.978988937416943,586.20001220703125
-77.8745400504431,593.4000244140625
-76.7703039315893,607.79998779296875
-75.666280538693172,641.79998779296875
-74.56246982959965,650.79998779296875
-73.45887176217002,651
-72.355486294265575,628
-71.2523133837658,698.4000244140625
-70.149352988557439,699.5999755859375
-69.046605066534539,752.20001220703125
-67.944069575602043,789.79998779296875
-66.84174647367945,854.20001220703125
-65.739635718693535,916
-64.63773726857471,1096.5999755859375
-63.5360510812734,1313.5999755859375
-62.434577114750937,1687.199951171875
-61.3333153269632,2186.199951171875
-60.232265675895178,2749.60009765625
-59.131428119522752,3400.60009765625
-58.030802615854554,3784
-56.930389122886481,3849.39990234375
-55.830187598636257,3783.199951171875
-54.730198001132521,3625.199951171875
-53.630420288413006,3718.800048828125
-52.530854418515446,4595.39990234375
-51.431500349504859,7052
-50.332358039440805,10310.400390625
-49.233427446402857,11978.2001953125
-48.134708528470583,12142.599609375
-47.036201243741743,9608
-45.937905550323194,6713.2001953125
-44.839821406334522,5349.7998046875
-43.74194876988804,4380.7998046875
-42.64428759913244,3277.800048828125
-41.5468378522055,2628
-40.449599487265004,2468
-39.352572462472381,2444.800048828125
-38.255756736005424,2394
-37.159152266047386,2237.60009765625
-36.062759010790614,1941
-34.966576928443828,1752
-33.8706059772212,1866
-32.774846115338732,2666.199951171875
-31.679297301039696,4678.60009765625
-30.583959492563736,6758.7998046875
-29.488832648166863,7978.39990234375
-28.393916726110547,8174
-27.299211684672628,7994.7998046875
-26.204717482129126,8391.400390625
-25.110434076774254,8727
-24.016361426916774,8111.2001953125
-22.922499490865448,5221.39990234375
-21.828848226945411,2902
-20.735407593489072,1981.5999755859375
-19.642177548834297,1651.199951171875
-18.549158051340783,1485
-17.456349059368222,1378
-16.363750531281767,1348.5999755859375
-15.271362425470215,1351.199951171875
-14.179184700326005,1357.199951171875
-13.087217314247027,1348
-11.995460225642091,1366.4000244140625
-10.903913392940012,1439.800048828125
-9.8125767745696066,1476
-8.7214503289651475,1571.5999755859375
-7.6305340145827358,1740.800048828125
-6.5398277898821107,1765.4000244140625
-5.4493316133357439,1663.5999755859375
-4.3590454434179264,1239.5999755859375
-3.26896923861932,927
-2.1791029574433196,2212.60009765625
-1.0894465583987767,2421.60009765625
-3.637978807091713E-12,1995.5999755859375
1.0892367592168739,2051
2.1782637607157085,787
3.2670810459494533,1085.800048828125
4.3556886563619628,1628.199951171875
5.4440866333861777,1904.800048828125
6.5322750184368488,1912.5999755859375
7.6202538529305457,1844.5999755859375
8.7080231782692863,1717
9.7955830358478124,1594.5999755859375
10.882933467048133,1555.4000244140625
11.970074513241343,1565.4000244140625
13.0570062157949,1560.4000244140625
14.143728616063527,1560.800048828125
15.230241755389216,1553.5999755859375
16.316545675103043,1576.4000244140625
17.402640416532449,1671
18.488526020995778,1796.800048828125
19.574202529791364,2094
20.659669984221182,2835.60009765625
21.744928425567196,4825.39990234375
22.82997789510955,8149.2001953125
23.914818434106564,10252.400390625
24.99945008382565,11561.599609375
26.083872885503297,11021.599609375
27.168086880381452,10047
28.252092109691148,10504.599609375
29.33588861464159,10410.599609375
30.419476436449258,8341.7998046875
31.502855616305169,5104
32.586026195402155,3003.800048828125
33.668988214920319,2488.199951171875
34.751741716028846,2520
35.834286739884192,2868.199951171875
36.916623327637353,3225.60009765625
37.998751520428414,3573
39.080671359392,3631
40.162382885640909,3756.800048828125
41.243886140291579,4107.60009765625
42.325181164447713,5338.7998046875
43.406267999200281,7000.2001953125
44.4871466856257,8757
45.5678172648004,11553
46.648279777786229,15969.7998046875
47.72853426563961,18702.80078125
48.8085807694024,19562.400390625
49.888419330107354,16811.599609375
50.968049988779967,10450
52.047472786436629,7007
53.126687764075541,6061.7998046875
54.205694962698544,6194.60009765625
55.284494423289289,6428
56.363086186827786,6633
57.44147029427404,6606
58.519646786589874,5985.7998046875
59.597615704718919,5035.2001953125
60.67537708960117,3970
61.752930982163889,3065.60009765625
62.83027742332888,2382.199951171875
63.90741645399612,2042.4000244140625
64.984348115074681,1715
66.061072447448169,1576.800048828125
67.13758949199655,1426.199951171875
68.213899289597975,1331
69.29000188109967,1304.199951171875
70.36589730736705,1264.5999755859375
71.441585609234608,1256.199951171875
72.517066827535018,1282.199951171875
73.592341003088222,1255.5999755859375
74.667408176715981,1207.5999755859375
75.742268389207311,1172
76.816921681369422,1175.5999755859375
77.891368093980418,1142.5999755859375
78.965607667816585,1119
80.039640443639655,1112.5999755859375
81.113466462209544,1104.800048828125
82.187085764271615,1129.800048828125
83.260498390560315,1167.5999755859375
84.333704381804637,1165.800048828125
85.40670377871902,1155
86.479496622014267,1167
87.552082952388446,1277.5999755859375
88.624462810528712,1418.199951171875
89.6966362371113,1469.199951171875
90.76860327281247,1508
91.840363958286616,1386.4000244140625
92.911918334189977,1422.800048828125
93.983266441158776,1567.5999755859375
95.054408319829236,1898
96.12534401081939,2055.800048828125
97.19607355474,2081.199951171875
98.2665969922,1844.5999755859375
99.336914363786491,1631.4000244140625
100.40702571009024,1457
101.47693107168197,1311.5999755859375
102.54663048912334,1190
103.61612400297781,1059.800048828125
104.68541165378701,1002.4000244140625
105.75449348208713,942.5999755859375
106.82336952840706,899.20001220703125
107.89203983326297,868
108.96050443715831,842
110.02876338060378,829.79998779296875
111.09681670407736,786
112.16466444806247,757.79998779296875
113.23230665302981,716.5999755859375
114.2997433594428,745.4000244140625
115.36697460774849,737
116.43400043838665,731.4000244140625
117.50082089179705,697.4000244140625
118.56743600839945,710.4000244140625
119.63384582860272,738.20001220703125
120.70005039281386,723.79998779296875
121.76604974143083,751.5999755859375
122.83184391483519,782
123.89743295340486,820.4000244140625
124.96281689750322,834.5999755859375
126.02799578748636,869.5999755859375
127.09296966370857,885.4000244140625
128.15773856649867,926.20001220703125
129.22230253619455,978.4000244140625
130.28666161311048,969.4000244140625
131.35081583755345,978.5999755859375
132.414765249825,961.4000244140625
133.47850989022481,1011.4000244140625
134.54204979901988,993.4000244140625
135.60538501649535,974.79998779296875
136.66851558290364,1009.5999755859375
137.73144153850444,1016.4000244140625
138.79416292353926,995.79998779296875
139.85667977824414,975
140.91899214284422,969.79998779296875
141.9811000575537,916
143.0430035625759,936.20001220703125
144.10470269811231,920.4000244140625
145.16619750435348,885.20001220703125
146.22748802146998,857
147.28857428963602,837.5999755859375
148.3494563490076,828.5999755859375
149.41013423973891,827.79998779296875
150.47060800196778,847.20001220703125
151.53087767582292,835.5999755859375
152.59094330143125,841
153.65080491890512,856.4000244140625
154.71046256834779,899.5999755859375
155.76991628984433,934.20001220703125
156.82916612349436,942.20001220703125
157.88821210936294,974.20001220703125
158.94705428751695,1008
160.00569269801963,1018.4000244140625
161.06412738090876,992.5999755859375
162.12235837622939,1000.7999877929688
163.18038572400837,939
164.23820946425803,936.79998779296875
165.29582963700341,943.5999755859375
166.35324628222952,939.4000244140625
167.41045943993777,889.4000244140625
168.4674691501059,879.4000244140625
169.52427545270439,863
170.58087838770371,843.20001220703125
171.63727799505432,830.20001220703125
172.6934743146976,831.5999755859375
173.74946738657491,828.4000244140625
174.80525725060761,800.5999755859375
175.86084394671525,726.20001220703125
176.91622751480463,754.20001220703125
177.97140799477529,728
179.02638542651403,685.20001220703125
180.08115984989854,666.79998779296875
181.13573130480836,615.20001220703125
182.1900998310939,637
183.24426546861469,589.5999755859375
184.29822825721203,582
185.35198823671635,578.20001220703125
186.40554544695078,528.79998779296875
187.45889992773846,504.60000610351563
188.51205171887523,499.79998779296875
189.5650008601624,416
190.61774739138855,454.60000610351563
191.67029135232588,427.20001220703125
192.72263278274659,411.20001220703125
193.77477172241379,390
194.82670821106694,409.79998779296875
195.87844228846188,401
196.92997399431806,369
197.98130336836039,364.79998779296875
199.03243045030285,357.20001220703125
200.083355279854,357.39999389648438
201.13407789669873,328.79998779296875
202.18459834053465,348.60000610351563
203.23491665102665,349.20001220703125
204.28503286785053,329.20001220703125
205.33494703066026,326.39999389648438
206.38465917910617,346
207.43416935282403,326.20001220703125
208.48347759144417,346
209.53258393459691,345.39999389648438
210.58148842188348,329.60000610351563
211.63019109291054,326.79998779296875
212.67869198727021,349.39999389648438
213.726991144551,330.60000610351563
214.775088604325,341.79998779296875
215.82298440615341,357.39999389648438
216.8706785896029,324.60000610351563
217.91817119421466,325.20001220703125
218.96546225952443,303.60000610351563
220.01255182506975,334.20001220703125
221.05943993036635,341.39999389648438
222.10612661491905,317.60000610351563
223.15261191823993,314.79998779296875
224.19889587981743,311.60000610351563
225.24497853913635,301.60000610351563
226.29085993566514,300
227.33654010887221,296.79998779296875
228.38201909822055,304.79998779296875
229.42729694314221,311.39999389648438
230.47237368309288,279.79998779296875
231.51724935748462,274.20001220703125
232.56192400574764,267.20001220703125
233.60639766728673,269.60000610351563
234.65067038150482,274
235.69474218779396,273.39999389648438
236.73861312553527,266.79998779296875
237.78228323410804,250.19999694824219
238.82575255286974,280.79998779296875
239.86902112117787,261
240.9120889783826,269.60000610351563
241.95495616381777,240.60000610351563
242.99762271681357,250
244.04008867668745,242.60000610351563
245.08235408274959,256
246.1244189743029,263.39999389648438
247.16628339063755,262.39999389648438
248.20794737103279,264.79998779296875
249.24941095476788,270.60000610351563
250.29067418110571,257.20001220703125
251.33173708930008,248.19999694824219
252.37259971859567,246.80000305175781
253.41326210823536,280
254.45372429744384,253.39999389648438
255.49398632544035,271.39999389648438
256.53404823143683,247.80000305175781
257.57391005463069,228
258.61357183421751,287.60000610351563
259.65303360938196,252.19999694824219
260.69229541928871,229.19999694824219
261.73135730310787,238.39999389648438
262.77021929999864,274.39999389648438
263.80888144910386,261.79998779296875
264.84734378955909,259.60000610351563
265.88560636049988,278.20001220703125
266.92366920103996,266.20001220703125
267.9615323502876,255
268.99919584735289,263.60000610351563
270.03665973132047,274.20001220703125
271.07392404127677,256.79998779296875
272.1109888162955,261.20001220703125
273.14785409544129,259
274.18451991776965,273.20001220703125
275.22098632233428,265.39999389648438
276.25725334816525,273.39999389648438
277.29332103429442,283.60000610351563
278.32918941974458,286.20001220703125
279.36485854352395,285.60000610351563
280.40032844463531,280.20001220703125
281.43559916207232,284
282.4706707348214,285.20001220703125
283.50554320185074,264.39999389648438
284.540216602134,289.39999389648438
285.57469097462854,289.39999389648438
286.60896635827521,309.20001220703125
287.6430427920186,296
288.67692031479055,320
289.71059896550651,328.60000610351563
290.74407878308375,350.79998779296875
291.777359806425,341.20001220703125
292.81044207441846,344.20001220703125
293.84332562596137,320
294.87601049991827,363.20001220703125
295.90849673516095,344.79998779296875
296.94078437055396,328.79998779296875
297.97287344493816,334.39999389648438
299.00476399715808,314.20001220703125
300.03645606604368,326.20001220703125
301.06794969041584,292.79998779296875
302.09924490909361,287.20001220703125
303.13034176088149,306
304.16124028456943,309.79998779296875
305.1919405189492,292.20001220703125
306.222442502798,301.20001220703125
307.25274627488216,337.20001220703125
308.2828518739625,297.39999389648438
309.31275933879624,338
310.34246870811512,362.39999389648438
311.37198002066361,292.79998779296875
312.40129331515891,317.60000610351563
313.43040863031638,348.79998779296875
314.45932600484593,320.39999389648438
315.48804547744476,304.39999389648438
316.51656708679729,278
317.54489087158618,287.60000610351563
318.57301687048675,301.20001220703125
319.60094512215619,304.20001220703125
320.62867566524437,308.20001220703125
321.65620853840483,272.79998779296875
322.68354378026197,269.60000610351563
323.71068142945296,262.20001220703125
324.73762152458949,281.20001220703125
325.76436410428141,271.79998779296875
326.79090920712588,267.79998779296875
327.81725687171638,265.60000610351563
328.84340713663732,254.60000610351563
329.86936004045674,271.79998779296875
330.8951156217463,260.20001220703125
331.92067391905039,263
332.9460349709243,258.60000610351563
333.97119881590334,265.60000610351563
334.99616549251732,298.20001220703125
336.02093503928518,275.60000610351563
337.04550749471673,276.79998779296875
338.06988289731453,256.60000610351563
339.09406128557566,262.20001220703125
340.11804269798085,286.39999389648438
341.14182717300719,262
342.16541474912265,260.79998779296875
343.18880546478249,275.60000610351563
344.21199935844015,259
345.23499646853088,245.19999694824219
346.25779683349174,253.60000610351563
347.2804004917416,255.80000305175781
348.30280748169571,258.20001220703125
349.3250178417602,289.20001220703125
350.34703161032849,271.79998779296875
351.36884882579034,263.39999389648438
352.39046952652461,261.79998779296875
353.41189375090107,257.39999389648438
354.43312153727675,244.19999694824219
355.45415292401049,271.60000610351563
356.47498794944113,252.60000610351563
357.49562665190388,235.80000305175781
358.51606906973029,268.60000610351563
359.53631524122466,235
360.55636520471126,247.19999694824219
361.576218998478,244.19999694824219
362.59587666081825,264.39999389648438
363.6153382300181,279
364.63460374434362,248.19999694824219
365.65367324206454,289.79998779296875
366.67254676143239,290.60000610351563
367.69122434069686,291
368.70970601810041,273.39999389648438
369.7279918318618,267.20001220703125
370.74608182021075,274.79998779296875
371.7639760213533,262.79998779296875
372.78167447349733,246.60000610351563
373.79917721483071,268.60000610351563
374.81648428354674,279.39999389648438
375.8335957178133,240.80000305175781
376.85051155580732,258.60000610351563
377.86723183568211,255.60000610351563
378.88375659558915,283.79998779296875
379.90008587367265,263.60000610351563
380.91621970806045,290.60000610351563
381.932158136884,244.60000610351563
382.94790119825484,249.80000305175781
383.96344893028072,257
384.97880137105676,268.60000610351563
385.99395855867624,255.19999694824219
387.0089205312197,254.19999694824219
388.02368732675495,242.60000610351563
389.03825898334981,248.39999389648438
390.05263553905752,248.60000610351563
391.06681703192226,247.80000305175781
392.08080349998454,255.39999389648438
393.09459498126671,242.60000610351563
394.10819151379292,236.80000305175781
395.12159313558004,261
396.13479988461768,252.19999694824219
397.14781179890815,254
398.16062891643014,264.79998779296875
399.17325127516779,273.39999389648438
400.18567891308157,268
401.19791186813563,255.19999694824219
402.20995017827954,270.20001220703125
403.22179388145014,288.39999389648438
404.23344301558427,266.20001220703125
405.24489761860423,255.60000610351563
406.256157728425,259
407.26722338295986,255.80000305175781
408.27809462009827,257.60000610351563
409.28877147773528,240.19999694824219
410.29925399374588,263
411.30954220601052,252.19999694824219
412.31963615238783,240.60000610351563
413.3295358707328,292
414.33924139889314,282.60000610351563
415.348752774702,272.79998779296875
416.35807003599439,298.60000610351563
417.36719322058889,268
418.3761223662932,251.80000305175781
419.38485751091685,280.39999389648438
420.39339869224932,265.60000610351563
421.4017459480765,277.60000610351563
422.4098993161806,273.20001220703125
423.41785883432567,274.39999389648438
424.42562454027211,275.39999389648438
425.43319647177304,272.39999389648438
426.44057466656886,249
427.44775916239269,291.60000610351563
428.45474999697581,280.39999389648438
429.46154720802588,290
430.46815083326146,271.60000610351563
431.474560910372,279
432.48077747705611,257
433.48680057099773,284.79998779296875
434.4926302298627,288.60000610351563
435.49826649132046,292.60000610351563
436.50370939302593,293.79998779296875
437.50895897263217,287.79998779296875
438.5140152677759,291
439.51887831608292,277.20001220703125
440.52354815518265,299
441.52802482268817,285.20001220703125
442.532308356198,292.20001220703125
443.53639879331604,293.20001220703125
444.54029617162814,293.60000610351563
445.54400052871461,314
446.54751190214483,301.39999389648438
447.55083032947732,287
448.553955848276,302.39999389648438
449.55688849607577,296.39999389648438
450.55962831042052,283.79998779296875
451.56217532883238,292.20001220703125
452.56452958883892,271.60000610351563
453.56669112794589,303.60000610351563
454.56865998365174,290.20001220703125
455.57043619345859,302.39999389648438
456.57201979484853,302.79998779296875
457.57341082529638,268.20001220703125
458.57460932227514,280.39999389648438
459.57561532323962,315.39999389648438
460.57642886564281,318.79998779296875
461.57704998692861,301.39999389648438
462.57747872453183,274.60000610351563
463.57771511587816,302.79998779296875
464.57775919838059,280.20001220703125
465.5776110094539,315.79998779296875
466.57727058649289,285.79998779296875
467.57673796689414,329
468.5760131880379,287
469.57509628729895,301.60000610351563
470.57398730204477,331.20001220703125
471.57268626963196,362
472.57119322740982,345.79998779296875
473.56950821272039,369.20001220703125
474.56763126289479,341.60000610351563
475.56556241525323,348.60000610351563
476.56330170711954,316.20001220703125
477.5608491757921,321.79998779296875
478.55820485857475,301.79998779296875
479.55536879275314,335.20001220703125
480.55234101561109,318.39999389648438
481.54912156442151,308.20001220703125
482.54571047644822,334.20001220703125
483.54210778894412,309.79998779296875
484.5383135391603,308.60000610351563
485.53432776433874,323.39999389648438
486.53015050170507,317.60000610351563
487.52578178848125,304.20001220703125
488.521221661882,298.20001220703125
489.51647015911294,296.60000610351563
490.511527317376,309.39999389648438
491.50639317384957,316.60000610351563
492.50106776571556,314.20001220703125
493.49555113015049,321.60000610351563
494.48984330431631,315.60000610351563
495.48394432536406,325.39999389648438
496.477854230443,309.39999389648438
497.47157305668588,289.60000610351563
498.46510084122747,290.20001220703125
499.45843762119148,324.79998779296875
500.45158343368166,316
501.44453831580358,321.60000610351563
502.43730230465735,325.39999389648438
503.4298754373267,320
504.42225775089173,283.39999389648438
505.41444928242527,312.79998779296875
506.40645006898194,301.60000610351563
507.39826014762366,290.39999389648438
508.38987955538869,317.60000610351563
509.38130832932075,330.60000610351563
510.3725465064399,281
511.36359412377169,322.20001220703125
512.35445121832345,327
513.345117827108,298.60000610351563
514.33559398710713,316.20001220703125
515.32587973531554,286.39999389648438
516.31597510870961,298.20001220703125
517.305880144253,311.39999389648438
518.29559487891856,306
519.2851193496499,287
520.27445359339254,304
521.2635976470865,324
522.25255154765728,297
523.24131533202308,310.79998779296875
524.22988903709665,328
525.21827269978348,297
526.20646635697267,316.39999389648438
527.19447004554968,296.39999389648438
528.18228380239634,279
529.16990766437993,298.20001220703125
530.15734166836046,309.79998779296875
531.14458585119428,285
532.13164024971957,306.79998779296875
533.11850490077813,297.79998779296875
534.1051798411936,277.60000610351563
535.09166510778778,328.39999389648438
536.0779607373679,293.39999389648438
537.06406676674123,269.79998779296875
538.04998323269865,299
539.03571017202739,306.60000610351563
540.02124762150379,303.20001220703125
541.00659561790053,300.20001220703125
541.99175419797393,290.60000610351563
542.97672339848032,313.60000610351563
543.96150325615963,300.20001220703125
544.94609380775364,282.60000610351563
545.93049508998593,305.20001220703125
546.91470713957824,300.60000610351563
547.89872999324143,288.60000610351563
548.88256368767543,300.20001220703125
549.86620825957834,285.60000610351563
550.84966374563555,308.39999389648438
551.83293018252334,300.39999389648438
552.81600760691072,276.39999389648438
553.79889605546123,318
554.78159556482933,311.20001220703125
555.76410617165857,314.60000610351563
556.74642791258339,327.60000610351563
557.72856082423277,292.20001220703125
558.71050494323026,313.79998779296875
559.692260306183,328.79998779296875
560.67382694969274,314.60000610351563
561.65520491036477,298.39999389648438
562.63639422477536,305.60000610351563
563.617394929508,303.20001220703125
564.59820706113169,339.79998779296875
565.5788306562099,297.60000610351563
566.55926575129524,299.79998779296875
567.53951238293848,345
568.51957058766675,312.60000610351563
569.49944040201626,320.79998779296875
570.47912186250869,319.39999389648438
571.45861500565115,328
572.43791986795441,314
573.417036485911,312
574.3959648960099,304.79998779296875
575.37470513472908,339.79998779296875
576.35325723854476,318.20001220703125
577.3316212439131,340.79998779296875
578.309797187294,320
579.28778510513439,322.60000610351563
580.26558503387241,351.79998779296875
581.24319700993874,320.20001220703125
582.22062106975318,336.60000610351563
583.1978572497319,320.79998779296875
584.17490558627833,336.79998779296875
585.15176611579591,343.79998779296875
586.12843887466624,326.60000610351563
587.1049238992764,356.79998779296875
588.08122122599343,348.20001220703125
589.05733089119167,336.79998779296875
590.03325293122,316.39999389648438
591.00898738242722,329.79998779296875
591.98453428115681,326.79998779296875
592.95989366373578,331.79998779296875
593.93506556649481,330
594.91005002574457,310.20001220703125
595.88484707779207,322.60000610351563
596.85945675894072,333.79998779296875
597.83387910547935,357.39999389648438
598.808114153695,329.79998779296875
599.78216193985281,326
600.7560225002253,332.60000610351563
601.729695871074,350.39999389648438
602.70318208864228,367
603.67648118917714,340.79998779296875
604.64959320891285,321.39999389648438
605.62251818407458,338.60000610351563
606.59525615087659,372.79998779296875
607.56780714553315,361.39999389648438
608.54017120424214,348.60000610351563
609.51234836320145,343.20001220703125
610.48433865859079,341.39999389648438
611.45614212658984,337.20001220703125
612.42775880336558,341.20001220703125
613.39918872508315,333.60000610351563
614.37043192788951,346.60000610351563
615.34148844793526,372
616.31235832134917,360.79998779296875
617.28304158426727,344.20001220703125
618.253538272802,358.79998779296875
619.2238484230711,351.60000610351563
620.19397207117981,364.39999389648438
621.16390925321321,337.60000610351563
622.13366000527276,343.39999389648438
623.103224363429,319.20001220703125
624.07260236375441,341.60000610351563
625.04179404231763,345.39999389648438
626.01079943516561,366.60000610351563
626.97961857835253,344.60000610351563
627.94825150791621,366.39999389648438
628.91669825988356,345.60000610351563
629.8849588702833,352.79998779296875
630.85303337512414,337.60000610351563
631.8209218104148,354.20001220703125
632.7886242121549,349.60000610351563
633.75614061633678,362
634.72347105893823,367.20001220703125
635.69061557593523,360.20001220703125
636.65757420329646,349
637.6243469769779,332.39999389648438
638.59093393293,399
639.55733510709615,343.79998779296875
640.5235505354085,365.60000610351563
641.48958025379216,372.60000610351563
642.45542429816669,376.20001220703125
643.4210827044426,349.79998779296875
644.38655550851945,364.79998779296875
645.351842746295,353.79998779296875
646.31694445364883,358.39999389648438
647.28186066646231,350
648.24659142060591,335.79998779296875
649.21113675193737,365
650.17549669631444,350.39999389648438
651.13967128958211,354.60000610351563
652.10366056757266,344.60000610351563
653.067464566122,358.39999389648438
654.03108332104784,363
654.99451686816428,352.60000610351563
655.95776524327266,359.60000610351563
656.920828482178,369.39999389648438
657.88370662066518,345
658.84639969451382,355.60000610351563
659.80890773950159,346
660.77123079139164,330.39999389648438
661.733368885938,356.79998779296875
662.69532205889118,361.60000610351563
663.65709034599786,344.39999389648438
664.61867378298484,335.20001220703125
665.58007240558072,347
666.54128624949954,352.60000610351563
667.50231535045532,341.79998779296875
668.46315974414392,334.79998779296875
669.42381946626119,352
670.38429455249025,341.20001220703125
671.34458503851238,345.60000610351563
672.30469095999615,345.60000610351563
673.2646123525974,343.60000610351563
674.224349251972,353.79998779296875
675.18390169377017,337.79998779296875
676.14326971362243,338
677.10245334716274,348.20001220703125
678.0614526300069,323.20001220703125
679.02026759777618,347
679.97889828607,348.60000610351563
680.93734473048789,348.79998779296875
681.89560696662011,328
682.85368503004611,331.20001220703125
683.81157895634169,340.39999389648438
684.76928878106992,324.60000610351563
