-777.87311982425126,25.5
-776.63374739947358,23
-775.39461482227671,49
-774.15572204389719,44
-772.91706901559337,44
-771.67865568863454,35
-770.44048201429,64.5
-769.20254794384346,61
-767.96485342860433,42.5
-766.7273984198855,35
-765.49018286900719,25
-764.25320672730777,37.5
-763.01646994613657,47
-761.77997247685744,15.5
-760.5437142708488,38.5
-759.307695279489,17.5
-758.07191545417118,30.5
-756.83637474631723,47.5
-755.601073107342,40.5
-754.36601048868215,34
-753.13118684178153,53.5
-751.89660211810587,45.5
-750.66225626912092,15.5
-749.42814924630693,16
-748.19428100116238,34
-746.960651485193,46
-745.72726064991912,59.5
-744.49410844686827,46
-743.26119482758622,25.5
-742.02851974362966,30
-740.79608314656616,45
-739.5638849879706,37.5
-738.331925219436,23
-737.10020379257367,29.5
-735.86872065898388,57
-734.63747577031063,51.5
-733.406469078187,16.5
-732.17570053426061,34.5
-730.94517009020092,36
-729.71487769768464,32.5
-728.48482330838851,32
-727.25500687402564,13.5
-726.02542834630549,19
-724.79608767694481,32
-723.56698481768581,24
-722.33811972027434,37
-721.10949233647079,39
-719.88110261805014,43.5
-718.652950516791,25.5
-717.42503598449366,51
-716.19735897296232,42
-714.96991943401918,33.5
-713.74271731949739,25
-712.515752581241,47.5
-711.28902517110146,41.5
-710.06253504095184,17.5
-708.83628214267264,29.5
-707.610266428148,40.5
-706.384487849291,23.5
-705.15894635801124,20
-703.93364190623652,48.5
-702.70857444590911,25
-701.48374392898586,38.5
-700.25915030741635,20.5
-699.03479353318289,36.5
-697.81067355827872,40
-696.58679033470071,26
-695.36314381444936,45.5
-694.1397339495652,25.5
-692.91656069207056,30.5
-691.69362399401689,62
-690.47092380745926,45
-689.24846008447821,22
-688.02623277714338,22.5
-686.80424183756077,41
-685.58248721782911,40
-684.360968870069,32.5
-683.13968674641546,43.5
-681.91864079900733,21.5
-680.69783097999425,25.5
-679.4772572415477,39.5
-678.25691953584283,29
-677.0368178150693,26.5
-675.81695203143136,49.5
-674.59732213714051,30.5
-673.37792808442282,48
-672.15876982551163,21.5
-670.9398473126621,29
-669.72116049812939,40
-668.50270933419051,15
-667.28449377312245,18
-666.0665137672313,25.5
-664.84876926881952,51.5
-663.63126023020413,29.5
-662.413986603724,24.5
-661.19694834172151,47.5
-659.9801453965465,20.5
-658.76357772057054,40.5
-657.54724526617247,47.5
-656.33114798573843,26
-655.11528583168,29.5
-653.89965875640155,29
-652.68426671233283,12
-651.46910965191455,30
-650.25418752759469,32.5
-649.03950029183216,16.5
-647.825047897104,14.5
-646.61083029589463,20.5
-645.39684744069928,44
-644.18309928402778,37
-642.96958577839359,50
-641.75630687633929,39.5
-640.54326253040745,19
-639.33045269314425,26.5
-638.117877317125,37
-636.90553635492142,39
-635.69342975913059,7
-634.481557482357,26
-633.26991947720853,15.5
-632.05851569631523,29.5
-630.84734609231418,16.5
-629.63641061784983,34
-628.4257092255848,39
-627.21524186819988,6.5
-626.00500849836862,52.5
-624.79500906879366,50
-623.58524353217763,29
-622.37571184124863,27.5
-621.1664139487275,38
-619.95734980736415,28
-618.74851936991581,34
-617.539922589136,33
-616.33155941781479,21
-615.12342980873473,30.5
-613.91553371470036,33
-612.70787108852346,20
-611.50044188302672,24.5
-610.29324605104739,34
-609.08628354543725,38
-607.87955431905175,11.5
-606.67305832475722,26.5
-605.46679551544912,25.5
-604.26076584400835,25
-603.05496926335218,38
-601.849405726387,16.5
-600.64407518604821,38
-599.438977595275,33
-598.234112907021,-4
-597.02948107425073,2
-595.82508204993974,36.5
-594.62091578707441,28.5
-593.41698223864842,11
-592.21328135768454,42.5
-591.009813097191,35.5
-589.80657741020877,12
-588.60357424978247,40
-587.4008035689676,41.5
-586.19826532083425,29
-584.99595945845977,31.5
-583.793885934936,21.5
-582.5920447033659,35.5
-581.39043571686307,43
-580.18905892855764,26
-578.98791429158518,34
-577.78700175909034,32.5
-576.58632128423778,10
-575.38587282020308,13
-574.1856563201618,24
-572.98567173731681,22
-571.78591902487278,-11.5
-570.58639813603986,29
-569.38710902406274,6
-568.18805164217156,4
-566.98922594362557,26.5
-565.790631881684,14
-564.59226940962253,28.5
-563.39413848073127,44.5
-562.19623904831133,17
-560.99857106566742,30
-559.80113448612792,14.5
-558.60392926301938,16.5
-557.40695534968654,5
-556.21021269949415,16.5
-555.0137012658015,42
-553.81742100199153,9
-552.62137186145628,23.5
-551.4255537975896,33
-550.22996676381626,27.5
-549.03461071355377,24.5
-547.8394856002451,35.5
-546.64459137733138,29.5
-545.449927998272,10.5
-544.25549541654073,9
-543.06129358562066,18
-541.86732245900566,8.5
-540.67358199019873,12.5
-539.48007213271376,16.5
-538.28679284007922,26.5
-537.09374406584539,19
-535.900925763548,17
-534.70833788675736,20
-533.51598038904558,39.5
-532.32385322399932,23
-531.13195634520889,20
-529.94028970629006,14.5
-528.74885326085314,29.5
-527.55764696253573,-8
-526.36667076497724,36.5
-525.17592462183165,11
-523.985408486762,38
-522.79512231344415,20
-521.60506605556839,31
-520.41523966682871,12
-519.22564310093912,38
-518.0362763116209,3
-516.84713925260257,13.5
-515.65823187763453,15
-514.46955414046715,28
-513.28110599486718,5.5
-512.09288739461954,12
-510.90489829350736,11
-509.71713864533194,16
-508.52960840390369,-2.5
-507.3423075230512,8.5
-506.15523595660488,12.5
-504.96839365841697,27
-503.78178058233607,15.5
-502.59539668223624,20.5
-501.4092419119952,10
-500.223316225507,20.5
-499.0376195766712,15.5
-497.85215191940188,14
-496.666913207624,23.5
-495.48190339527719,6
-494.29712243630638,13.5
-493.11257028467116,20
-491.928246894342,-20.5
-490.7441522193003,6.5
-489.56028621353471,14.5
-488.37664883105754,29.5
-487.19324002587746,10.5
-486.01005975202315,4.5
-484.8271079635324,6.5
-483.6443846144557,20.5
-482.46188965885085,-2.5
-481.27962305079018,13
-480.09758474435512,16
-478.91577469364165,6
-477.73419285275304,12.5
-476.55283917580709,8
-475.37171361693436,-3
-474.19081613026719,22.5
-473.010146669958,18
-471.82970519017181,5.5
-470.64949164507379,14.5
-469.46950598885633,2
-468.28974817570452,20
-467.1102181598344,14.5
-465.93091589545475,10.5
-464.75184133679977,11.5
-463.57299443810552,-10
-462.39437515362624,17.5
-461.2159834376198,9
-460.03781924436043,18
-458.85988252813513,20.5
-457.68217324323632,15.5
-456.50469134396917,8.5
-455.32743678465886,21.5
-454.15040951962692,11.5
-452.97360950321672,0
-451.79703668977709,5.5
-450.62069103367321,-6.5
-449.4445724892721,22
-448.26868101096989,-13.5
-447.09301655315357,11.5
-445.9175790702302,1.5
-444.74236851661954,11.5
-443.56738484675407,-1.5
-442.39262801506811,7
-441.21809797601236,0
-440.0437946840575,1.5
-438.86971809366878,-5
-437.69586815933872,3
-436.52224483555256,20
-435.34884807682647,-2
-434.17567783767481,-12
-433.00273407262466,17.5
-431.83001673621948,2.5
-430.65752578300453,-12
-429.4852611675542,12.5
-428.31322284443013,-3.5
-427.14141076821943,3
-425.96982489351649,-11
-424.79846517493388,27
-423.62733156708055,15
-422.45642402459453,-13
-421.28574250211022,18.5
-420.1152869542766,3
-418.94505733575534,-16.5
-417.77505360122632,13
-416.60527570536397,21
-415.43572360287,-8.5
-414.26639724844608,22
-413.09729659681216,-15
-411.92842160268992,9
-410.7597722208302,14
-409.59134840596926,13
-408.42315011287792,12
-407.2551772963252,-4.5
-406.087429911091,5
-404.9199079119735,18.5
-403.75261125377619,23
-402.58553989131542,0.5
-401.41869377941293,7.5
-400.25207287291232,1.5
-399.08567712666627,10.5
-397.919506495522,-2
-396.75356093436312,-2.5
-395.58784039806596,-10.5
-394.42234484151959,-8
-393.25707421963307,0
-392.09202848732275,7
-390.92720759950862,-4
-389.76261151112521,4.5
-388.59824017713072,7
-387.43409355247422,-7
-386.27017159212846,2
-385.10647425107527,-3
-383.94300148430193,7
-382.77975324681393,-7.5
-381.616729493624,13
-380.453930179754,1.5
-379.29135526024038,3.5
-378.129004690134,3.5
-376.96687842448227,7.5
-375.80497641835791,-23.5
-374.64329862683917,-7.5
-373.4818450050152,-15
-372.32061550798426,20.5
-371.15961009086277,18
-369.99882870877082,6.5
-368.83827131683756,21.5
-367.677937870214,20.5
-366.51782832404751,-7.5
-365.3579426335109,22
-364.19828075377518,-6
-363.03884264003136,1.5
-361.87962824747046,7
-360.7206375313126,-7
-359.56187044677063,1.5
-358.403326949081,-5
-357.24500699348027,17
-356.08691053522307,13.5
-354.92903752956954,-15
-353.771387931798,-0.5
-352.61396169719228,4
-351.45675878105067,-11
-350.29977913867333,-8.5
-349.14302272538407,-18.5
-347.98648949651215,8.5
-346.83017940739046,16
-345.67409241337191,20
-344.51822846982031,-20.5
-343.36258753210313,20.5
-342.20716955560965,-5
-341.05197449572188,-10.5
-339.89700230785638,-2.5
-338.74225294741518,16
-337.58772636983667,12
-336.43342253054652,3.5
-335.27934138499768,24
-334.12548288865037,-6
-332.97184699696481,11
-331.81843366542853,-10.5
-330.66524284953266,-0.5
-329.51227450476654,8.5
-328.35952858665769,13
-327.20700505071909,-8
-326.05470385248555,25
-324.90262494750459,3.5
-323.75076829132558,-8
-322.59913383951789,1.5
-321.44772154765633,-6
-320.29653137132846,19.5
-319.14556326613092,1
-317.99481718767311,-5.5
-316.84429309157531,32
-315.69399093346874,12
-314.54391066899007,-1.5
-313.39405225379596,13
-312.24441564354129,32
-311.09500079390455,-0.5
-309.94580766056788,-13.5
-308.79683619922253,52
-307.64808636558337,42.5
-306.49955811535619,27
-305.35125140426862,6
-304.203166188061,24.5
-303.05530242247733,33.5
-301.90766006327794,32.5
-300.76023906623413,35
-299.61303938712081,28.5
-298.46606098173288,17
-297.31930380586527,8.5
-296.17276781533837,21.5
-295.02645296596893,29
-293.88035921359551,38.5
-292.73448651404942,46
-291.58883482319834,16.5
-290.44340409690449,21.5
-289.29819429103554,3
-288.15320536148647,42
-287.0084372641486,24
-285.86388995493689,20.5
-284.7195633897627,6
-283.57545752455371,57
-282.431572315254,28
-281.28790771781496,43
-280.1444636881879,37.5
-279.00124018235692,34.5
-277.8582371562934,68
-276.71545456599597,40.5
-275.57289236746692,33.5
-274.43055051671945,63.5
-273.28842896977221,63
-272.14652768267115,12.5
-271.00484661145128,88
-269.86338571217493,49
-268.72214494090622,30.5
-267.581124253722,63
-266.44032360671372,54.5
-265.29974295597458,11
-264.159382257616,48.5
-263.01924146776037,50
-261.87932054252815,44
-260.73961943807444,57.5
-259.60013811053796,23.5
-258.46087651608468,61
-257.32183461088971,68
-256.18301235113358,56
-255.04440969300595,46.5
-253.90602659271462,65
-252.76786300647473,67
-251.62991889051045,61.5
-250.49219420105146,61
-249.35468889435288,53.5
-248.217402926668,89.5
-247.08033625425924,36.5
-245.94348883341445,89.5
-244.80686062040877,78.5
-243.67045157154826,62
-242.53426164314442,76
-241.39829079150877,55
-240.26253897297829,92.5
-239.12700614388814,64.5
-237.99169226059348,98
-236.85659727945676,57
-235.72172115684771,73
-234.58706384914331,85.5
-233.4526253127442,84.5
-232.31840550405468,102.5
-231.18440437947902,105.5
-230.05062189545242,89
-228.91705800840282,95
-227.78371267477996,141.5
-226.65058585103725,92.5
-225.51767749363898,105
-224.38498755906403,107
-223.2525160037967,129
-222.1202627843395,115.5
-220.98822785719858,132
-219.85641117888918,141.5
-218.7248127059429,175
-217.59343239489681,175.5
-216.46227020230072,121.5
-215.3313260847226,149
-214.20059999872137,159.5
-213.07009190087956,162
-211.9398017477979,177.5
-210.80972949606621,154.5
-209.67987510230523,120
-208.5502385231357,150
-207.42081971518564,149
-206.29161863510308,194
-205.16263523954149,167
-204.03386948516163,136
-202.90532132864428,167
-201.77699072666474,190
-200.64887763592742,160.5
-199.52098201313311,192
-198.39330381500076,209.5
-197.26584299825117,183
-196.13859951962695,183.5
-195.01157333587253,207
-193.88476440374143,236
-192.75817268001083,206
-191.63179812144881,257.5
-190.50564068485255,244
-189.3797003270156,232.5
-188.25397700474423,266.5
-187.12847067486291,287
-186.00318129420339,320
-184.87810881960104,344.5
-183.75325320790944,317.5
-182.62861441598398,352.5
-181.50419240070187,376.5
-180.37998711894033,380
-179.25599852759296,361
-178.13222658356062,383
-177.00867124376236,436
-175.88533246510815,396.5
-174.76221020454068,485.5
-173.63930441900084,505
-172.51661506544224,495
-171.39414210082759,529.5
-170.27188548212871,538
-169.14984516633558,548.5
-168.02802111043638,572.5
-166.90641327144112,575
-165.78502160636344,611
-164.66384607223154,649.5
-163.54288662607541,651.5
-162.4221432249451,704
-161.30161582589426,663
-160.18130438598928,732
-159.06120886230929,815.5
-157.94132921194432,674.5
-156.82166539198624,796
-155.70221735953965,786.5
-154.58298507173095,830
-153.46396848568111,841
-152.34516755853474,871
-151.22658224743282,865.5
-150.10821250953813,849.5
-148.99005830202077,924
-147.87211958205626,965.5
-146.75439630683832,990
-145.63688843355885,1061
-144.51959591943705,1083.5
-143.40251872168847,1075.5
-142.28565679753956,1138.5
-141.16901010423499,1210.5
-140.05257859902849,1240
-138.93636223917383,1237.5
-137.82036098194294,1287.5
-136.70457478462595,1292
-135.58900360449843,1356.5
-134.47364739887416,1347
-133.35850612506329,1339
-132.24357974038321,1428.5
-131.12886820217136,1401
-130.01437146776334,1432.5
-128.90008949451476,1414
-127.78602223979033,1460.5
-126.67216966095839,1428.5
-125.55853171540366,1493.5
-124.44510836051813,1461
-123.33189955371017,1391.5
-122.2189052523845,1481.5
-121.10612541397313,1498.5
-119.9935599959008,1501.5
-118.88120895561769,1490.5
-117.76907225057403,1449
-116.65714983823818,1477.5
-115.54544167607855,1541
-114.43394772158354,1546.5
-113.32266793224335,1559
-112.21160226556458,1576.5
-111.10075067906291,1609
-109.99011313026131,1587
-108.87968957669545,1664
-107.76947997590833,1630
-106.65948428545926,1606
-105.54970246290759,1749
-104.44013446582903,1655
-103.33078025181567,1752.5
-102.22163977845048,1875
-101.11271300335284,1790
-100.00399988412755,1955
-98.8955003784049,2050.5
-97.787214443818812,2153
-96.679142038015925,2275.5
-95.571283118651991,2326.5
-94.46363764339003,2470.5
-93.356205569909434,2647
-92.248986855895055,2545.5
-91.141981459042654,2535
-90.035189337055272,2616
-88.928610447654137,2715
-87.8222447485623,2815.5
-86.716092197515536,2786
-85.610152752264185,2823.5
-84.504426370558576,2776
-83.3989130101636,2753
-82.29361262886232,2710
-81.188525184439641,2691
-80.083650634691367,2646
-78.978988937416943,2612.5
-77.8745400504431,2704
-76.7703039315893,2722.5
-75.666280538693172,2773
-74.56246982959965,2786.5
-73.45887176217002,2940
-72.355486294265575,3061.5
-71.2523133837658,3139.5
-70.149352988557439,3307.5
-69.046605066534539,3571.5
-67.944069575602043,3704
-66.84174647367945,3781.5
-65.739635718693535,4033.5
-64.63773726857471,4064
-63.5360510812734,4352
-62.434577114750937,4506
-61.3333153269632,4741.5
-60.232265675895178,5067
-59.131428119522752,5486.5
-58.030802615854554,6070
-56.930389122886481,6762
-55.830187598636257,8012.5
-54.730198001132521,9266
-53.630420288413006,10805
-52.530854418515446,12468
-51.431500349504859,14495
-50.332358039440805,16477
-49.233427446402857,19083
-48.134708528470583,20661
-47.036201243741743,20920.5
-45.937905550323194,19645
-44.839821406334522,17278
-43.74194876988804,14836
-42.64428759913244,12698.5
-41.5468378522055,11234
-40.449599487265004,10583
-39.352572462472381,10372
-38.255756736005424,10641
-37.159152266047386,10861.5
-36.062759010790614,11066
-34.966576928443828,11137.5
-33.8706059772212,11250.5
-32.774846115338732,11553.5
-31.679297301039696,12701
-30.583959492563736,14582
-29.488832648166863,16523.5
-28.393916726110547,18834
-27.299211684672628,20492.5
-26.204717482129126,22436
-25.110434076774254,23854
-24.016361426916774,24193
-22.922499490865448,22367
-21.828848226945411,19347.5
-20.735407593489072,16366
-19.642177548834297,14158.5
-18.549158051340783,12732.5
-17.456349059368222,11311
-16.363750531281767,10507.5
-15.271362425470215,10303.5
-14.179184700326005,9954.5
-13.087217314247027,10005
-11.995460225642091,9727
-10.903913392940012,9928.5
-9.8125767745696066,10391
-8.7214503289651475,10535.5
-7.6305340145827358,10883.5
-6.5398277898821107,11237.5
-5.4493316133357439,9697
-4.3590454434179264,7026.5
-3.26896923861932,3893.5
-2.1791029574433196,3114.5
-1.0894465583987767,2412.5
-3.637978807091713E-12,2410
1.0892367592168739,3788
2.1782637607157085,3915
3.2670810459494533,6622
4.3556886563619628,9815.5
5.4440866333861777,11322.5
6.5322750184368488,11122.5
7.6202538529305457,10964.5
8.7080231782692863,10569
9.7955830358478124,10341
10.882933467048133,10287.5
11.970074513241343,10236.5
13.0570062157949,10440.5
14.143728616063527,11001
15.230241755389216,11385
16.316545675103043,12178
17.402640416532449,13114.5
18.488526020995778,14596
19.574202529791364,17016.5
20.659669984221182,20159.5
21.744928425567196,23793
22.82997789510955,26046.5
23.914818434106564,26687
24.99945008382565,25554
26.083872885503297,23358.5
27.168086880381452,21727.5
28.252092109691148,19605
29.33588861464159,17547
30.419476436449258,15209
31.502855616305169,13598.5
32.586026195402155,12825.5
33.668988214920319,12670.5
34.751741716028846,12739
35.834286739884192,12514.5
36.916623327637353,12411.5
37.998751520428414,12344.5
39.080671359392,12273
40.162382885640909,12937
41.243886140291579,14139.5
42.325181164447713,15940
43.406267999200281,18949
44.4871466856257,21873
45.5678172648004,24202.5
46.648279777786229,25254.5
47.72853426563961,24177
48.8085807694024,21815
49.888419330107354,18834.5
50.968049988779967,16353.5
52.047472786436629,14323.5
53.126687764075541,12298
54.205694962698544,10748
55.284494423289289,9199.5
56.363086186827786,7982.5
57.44147029427404,7341.5
58.519646786589874,6688
59.597615704718919,5977
60.67537708960117,5928
61.752930982163889,5635.5
62.83027742332888,5524.5
63.90741645399612,5246.5
64.984348115074681,5042
66.061072447448169,4895.5
67.13758949199655,4722.5
68.213899289597975,4473
69.29000188109967,4296.5
70.36589730736705,4181
71.441585609234608,3949
72.517066827535018,3929.5
73.592341003088222,3763.5
74.667408176715981,3669.5
75.742268389207311,3592.5
76.816921681369422,3634.5
77.891368093980418,3720
78.965607667816585,3714.5
80.039640443639655,3667
81.113466462209544,3673
82.187085764271615,3778
83.260498390560315,3905.5
84.333704381804637,3934
85.40670377871902,3982
86.479496622014267,3949.5
87.552082952388446,3924.5
88.624462810528712,3815.5
89.6966362371113,3801
90.76860327281247,3778.5
91.840363958286616,3629
92.911918334189977,3654.5
93.983266441158776,3460.5
95.054408319829236,3402.5
96.12534401081939,3281.5
97.19607355474,3153.5
98.2665969922,2952
99.336914363786491,2807
100.40702571009024,2846.5
101.47693107168197,2759.5
102.54663048912334,2579.5
103.61612400297781,2564.5
104.68541165378701,2640
105.75449348208713,2455.5
106.82336952840706,2608
107.89203983326297,2518.5
108.96050443715831,2476
110.02876338060378,2603
111.09681670407736,2501
112.16466444806247,2426
113.23230665302981,2439.5
114.2997433594428,2454.5
115.36697460774849,2431
116.43400043838665,2386.5
117.50082089179705,2381.5
118.56743600839945,2403.5
119.63384582860272,2349.5
120.70005039281386,2366
121.76604974143083,2468
122.83184391483519,2391.5
123.89743295340486,2398.5
124.96281689750322,2478
126.02799578748636,2396
127.09296966370857,2437.5
128.15773856649867,2469
129.22230253619455,2456
130.28666161311048,2446.5
131.35081583755345,2401.5
132.414765249825,2417.5
133.47850989022481,2392.5
134.54204979901988,2340.5
135.60538501649535,2308.5
136.66851558290364,2132
137.73144153850444,2229.5
138.79416292353926,2165.5
139.85667977824414,2140.5
140.91899214284422,2052
141.9811000575537,1949.5
143.0430035625759,1903.5
144.10470269811231,1910
145.16619750435348,1840.5
146.22748802146998,1866.5
147.28857428963602,1771.5
148.3494563490076,1752
149.41013423973891,1718.5
150.47060800196778,1652.5
151.53087767582292,1647.5
152.59094330143125,1558
153.65080491890512,1501
154.71046256834779,1470.5
155.76991628984433,1489
156.82916612349436,1440
157.88821210936294,1403.5
158.94705428751695,1435.5
160.00569269801963,1361
161.06412738090876,1293
162.12235837622939,1286.5
163.18038572400837,1226
164.23820946425803,1202.5
165.29582963700341,1179.5
166.35324628222952,1205.5
167.41045943993777,1171
168.4674691501059,1112.5
169.52427545270439,1037.5
170.58087838770371,1014.5
171.63727799505432,979
172.6934743146976,1029.5
173.74946738657491,981.5
174.80525725060761,898.5
175.86084394671525,927
176.91622751480463,867.5
177.97140799477529,815.5
179.02638542651403,801.5
180.08115984989854,772
181.13573130480836,733
182.1900998310939,688
183.24426546861469,696.5
184.29822825721203,691.5
185.35198823671635,662
186.40554544695078,600
187.45889992773846,587
188.51205171887523,594.5
189.5650008601624,538
190.61774739138855,559
191.67029135232588,534.5
192.72263278274659,520
193.77477172241379,503
194.82670821106694,482
195.87844228846188,488
196.92997399431806,462
197.98130336836039,425
199.03243045030285,419.5
200.083355279854,462.5
201.13407789669873,416
202.18459834053465,406.5
203.23491665102665,410.5
204.28503286785053,453
205.33494703066026,387
206.38465917910617,403.5
207.43416935282403,412
208.48347759144417,399.5
209.53258393459691,406
210.58148842188348,442.5
211.63019109291054,427
212.67869198727021,410.5
213.726991144551,403.5
214.775088604325,389
215.82298440615341,396
216.8706785896029,371.5
217.91817119421466,403.5
218.96546225952443,360
220.01255182506975,354
221.05943993036635,355.5
222.10612661491905,338
223.15261191823993,336
224.19889587981743,327.5
225.24497853913635,325.5
226.29085993566514,307.5
227.33654010887221,300.5
228.38201909822055,293.5
229.42729694314221,346.5
230.47237368309288,278.5
231.51724935748462,315.5
232.56192400574764,275
233.60639766728673,282.5
234.65067038150482,288
235.69474218779396,209.5
236.73861312553527,260
237.78228323410804,251.5
238.82575255286974,261.5
239.86902112117787,278
240.9120889783826,227.5
241.95495616381777,252.5
242.99762271681357,243.5
244.04008867668745,257.5
245.08235408274959,226.5
246.1244189743029,228.5
247.16628339063755,203
248.20794737103279,210
249.24941095476788,188
250.29067418110571,221.5
251.33173708930008,239
252.37259971859567,208.5
253.41326210823536,219.5
254.45372429744384,221.5
255.49398632544035,222.5
256.53404823143683,182.5
257.57391005463069,202.5
258.61357183421751,200.5
259.65303360938196,195
260.69229541928871,159.5
261.73135730310787,191.5
262.77021929999864,176
263.80888144910386,197.5
264.84734378955909,210.5
265.88560636049988,198
266.92366920103996,172.5
267.9615323502876,195
268.99919584735289,163
270.03665973132047,166.5
271.07392404127677,160.5
272.1109888162955,180.5
273.14785409544129,173
274.18451991776965,165
275.22098632233428,173.5
276.25725334816525,141.5
277.29332103429442,178.5
278.32918941974458,146.5
279.36485854352395,160
280.40032844463531,161.5
281.43559916207232,138
282.4706707348214,160
283.50554320185074,136.5
284.540216602134,133.5
285.57469097462854,133
286.60896635827521,152.5
287.6430427920186,155.5
288.67692031479055,150
289.71059896550651,112.5
290.74407878308375,115.5
291.777359806425,125.5
292.81044207441846,131
293.84332562596137,113
294.87601049991827,93.5
295.90849673516095,127.5
296.94078437055396,142
297.97287344493816,110.5
299.00476399715808,107.5
300.03645606604368,99
301.06794969041584,121
302.09924490909361,120
303.13034176088149,90
304.16124028456943,75
305.1919405189492,109
306.222442502798,108.5
307.25274627488216,128.5
308.2828518739625,91
309.31275933879624,98.5
310.34246870811512,118.5
311.37198002066361,80
312.40129331515891,106
313.43040863031638,61.5
314.45932600484593,115.5
315.48804547744476,97.5
316.51656708679729,109.5
317.54489087158618,89.5
318.57301687048675,77.5
319.60094512215619,89
320.62867566524437,94.5
321.65620853840483,47.5
322.68354378026197,82.5
323.71068142945296,89.5
324.73762152458949,58.5
325.76436410428141,55
326.79090920712588,70
327.81725687171638,62
328.84340713663732,54.5
329.86936004045674,55.5
330.8951156217463,83
331.92067391905039,84
332.9460349709243,74
333.97119881590334,64
334.99616549251732,97
336.02093503928518,82
337.04550749471673,78.5
338.06988289731453,62
339.09406128557566,91.5
340.11804269798085,40.5
341.14182717300719,108
342.16541474912265,50.5
343.18880546478249,71
344.21199935844015,33.5
345.23499646853088,77.5
346.25779683349174,35.5
347.2804004917416,66.5
348.30280748169571,49
349.3250178417602,48
350.34703161032849,63
351.36884882579034,45
352.39046952652461,44
353.41189375090107,61
354.43312153727675,36
355.45415292401049,42
356.47498794944113,46
357.49562665190388,45
358.51606906973029,24.5
359.53631524122466,38.5
360.55636520471126,45.5
361.576218998478,17
362.59587666081825,64
363.6153382300181,56
364.63460374434362,38.5
365.65367324206454,70
366.67254676143239,50.5
367.69122434069686,57.5
368.70970601810041,45.5
369.7279918318618,31.5
370.74608182021075,55
371.7639760213533,46.5
372.78167447349733,49
373.79917721483071,24.5
374.81648428354674,36.5
375.8335957178133,33
376.85051155580732,29
377.86723183568211,43
378.88375659558915,33.5
379.90008587367265,13
380.91621970806045,27.5
381.932158136884,4
382.94790119825484,40
383.96344893028072,27
384.97880137105676,20.5
385.99395855867624,35
387.0089205312197,10
388.02368732675495,20.5
389.03825898334981,47.5
390.05263553905752,25
391.06681703192226,15
392.08080349998454,26
393.09459498126671,38
394.10819151379292,24
395.12159313558004,27.5
396.13479988461768,38.5
397.14781179890815,20
398.16062891643014,31.5
399.17325127516779,44
400.18567891308157,35.5
401.19791186813563,24
402.20995017827954,32.5
403.22179388145014,20.5
404.23344301558427,21.5
405.24489761860423,56
406.256157728425,33
407.26722338295986,29
408.27809462009827,29.5
409.28877147773528,35
410.29925399374588,32
411.30954220601052,26.5
412.31963615238783,8.5
413.3295358707328,29.5
414.33924139889314,43.5
415.348752774702,44
416.35807003599439,34
417.36719322058889,48.5
418.3761223662932,16.5
419.38485751091685,40.5
420.39339869224932,16
421.4017459480765,14.5
422.4098993161806,29
423.41785883432567,24.5
424.42562454027211,9
425.43319647177304,14
426.44057466656886,60
427.44775916239269,25.5
428.45474999697581,18
429.46154720802588,51.5
430.46815083326146,41
431.474560910372,8
432.48077747705611,29
433.48680057099773,26.5
434.4926302298627,51
435.49826649132046,25.5
436.50370939302593,23.5
437.50895897263217,18
438.5140152677759,31.5
439.51887831608292,25.5
440.52354815518265,41.5
441.52802482268817,6.5
442.532308356198,68
443.53639879331604,32.5
444.54029617162814,28.5
445.54400052871461,18.5
446.54751190214483,36
447.55083032947732,10.5
448.553955848276,29.5
449.55688849607577,21.5
450.55962831042052,54
451.56217532883238,26
452.56452958883892,35
453.56669112794589,34.5
454.56865998365174,25
455.57043619345859,22
456.57201979484853,39.5
457.57341082529638,13.5
458.57460932227514,23.5
459.57561532323962,37.5
460.57642886564281,48
461.57704998692861,26
462.57747872453183,15
463.57771511587816,29
464.57775919838059,28.5
465.5776110094539,36.5
466.57727058649289,36
467.57673796689414,38
468.5760131880379,33.5
469.57509628729895,35
470.57398730204477,32.5
471.57268626963196,31.5
472.57119322740982,36
473.56950821272039,47
474.56763126289479,59.5
475.56556241525323,28
476.56330170711954,21
477.5608491757921,64
478.55820485857475,2
479.55536879275314,45.5
480.55234101561109,43.5
481.54912156442151,12
482.54571047644822,9.5
483.54210778894412,28.5
484.5383135391603,13
485.53432776433874,22
486.53015050170507,24.5
487.52578178848125,8
488.521221661882,-7
489.51647015911294,18
490.511527317376,18.5
491.50639317384957,16.5
492.50106776571556,33.5
493.49555113015049,12.5
494.48984330431631,4.5
495.48394432536406,41
496.477854230443,21
497.47157305668588,37
498.46510084122747,35
499.45843762119148,-18
500.45158343368166,8
501.44453831580358,25.5
502.43730230465735,22.5
503.4298754373267,19.5
504.42225775089173,29
505.41444928242527,6
506.40645006898194,18
507.39826014762366,13
508.38987955538869,18
509.38130832932075,11.5
510.3725465064399,20.5
511.36359412377169,-8.5
512.35445121832345,5.5
513.345117827108,15.5
514.33559398710713,9.5
515.32587973531554,-1.5
516.31597510870961,26.5
517.305880144253,10.5
518.29559487891856,24.5
519.2851193496499,22
520.27445359339254,17
521.2635976470865,1
522.25255154765728,16
523.24131533202308,42
524.22988903709665,52
525.21827269978348,22.5
526.20646635697267,40
527.19447004554968,18
528.18228380239634,19.5
529.16990766437993,12
530.15734166836046,2.5
531.14458585119428,31.5
532.13164024971957,10
533.11850490077813,3.5
534.1051798411936,21.5
535.09166510778778,42.5
536.0779607373679,-2
537.06406676674123,17
538.04998323269865,35.5
539.03571017202739,46
540.02124762150379,17.5
541.00659561790053,47
541.99175419797393,42
542.97672339848032,-17
543.96150325615963,7.5
544.94609380775364,37
545.93049508998593,2.5
546.91470713957824,26
547.89872999324143,31.5
548.88256368767543,36
549.86620825957834,17.5
550.84966374563555,29
551.83293018252334,28
552.81600760691072,32.5
553.79889605546123,19.5
554.78159556482933,23.5
555.76410617165857,39.5
556.74642791258339,33
557.72856082423277,24
558.71050494323026,13.5
559.692260306183,36
560.67382694969274,19.5
561.65520491036477,38
562.63639422477536,20.5
563.617394929508,40.5
564.59820706113169,31
565.5788306562099,12
566.55926575129524,13.5
567.53951238293848,3
568.51957058766675,14
569.49944040201626,38.5
570.47912186250869,36
571.45861500565115,15.5
572.43791986795441,38
573.417036485911,21
574.3959648960099,19.5
575.37470513472908,33.5
576.35325723854476,42.5
577.3316212439131,18.5
578.309797187294,57.5
579.28778510513439,49.5
580.26558503387241,28.5
581.24319700993874,10
582.22062106975318,14.5
583.1978572497319,22
584.17490558627833,41.5
585.15176611579591,39.5
586.12843887466624,14.5
587.1049238992764,41
588.08122122599343,21.5
589.05733089119167,10.5
590.03325293122,38
591.00898738242722,16.5
591.98453428115681,22.5
592.95989366373578,4
593.93506556649481,0.5
594.91005002574457,7.5
595.88484707779207,-8.5
596.85945675894072,42.5
597.83387910547935,12.5
598.808114153695,16
599.78216193985281,30
600.7560225002253,11.5
601.729695871074,19
602.70318208864228,24.5
603.67648118917714,13.5
604.64959320891285,41.5
605.62251818407458,1.5
606.59525615087659,10
607.56780714553315,30
608.54017120424214,25
609.51234836320145,9
610.48433865859079,13.5
611.45614212658984,29
612.42775880336558,15.5
613.39918872508315,9.5
614.37043192788951,30
615.34148844793526,39.5
616.31235832134917,19.5
617.28304158426727,27
618.253538272802,-6.5
619.2238484230711,11.5
620.19397207117981,-5.5
621.16390925321321,27.5
622.13366000527276,3
623.103224363429,74.5
624.07260236375441,2
625.04179404231763,53
626.01079943516561,-15
626.97961857835253,39
627.94825150791621,3.5
628.91669825988356,12.5
629.8849588702833,26
630.85303337512414,22
631.8209218104148,8.5
632.7886242121549,7
633.75614061633678,1
634.72347105893823,18
635.69061557593523,-5.5
636.65757420329646,41
637.6243469769779,33.5
638.59093393293,23
639.55733510709615,37
640.5235505354085,17.5
641.48958025379216,20.5
642.45542429816669,34.5
643.4210827044426,16.5
644.38655550851945,30
645.351842746295,22.5
646.31694445364883,27.5
647.28186066646231,22
648.24659142060591,29.5
649.21113675193737,27
650.17549669631444,26.5
651.13967128958211,20.5
652.10366056757266,15
653.067464566122,14.5
654.03108332104784,42
654.99451686816428,18.5
655.95776524327266,1
656.920828482178,50
657.88370662066518,23.5
658.84639969451382,1.5
659.80890773950159,3
660.77123079139164,38.5
661.733368885938,30
662.69532205889118,16
663.65709034599786,19
664.61867378298484,21
665.58007240558072,-0.5
666.54128624949954,25
667.50231535045532,13
668.46315974414392,1.5
669.42381946626119,14.5
670.38429455249025,29
671.34458503851238,22
672.30469095999615,15.5
673.2646123525974,26.5
674.224349251972,-3
675.18390169377017,38.5
676.14326971362243,23
677.10245334716274,31.5
678.0614526300069,15
679.02026759777618,34.5
679.97889828607,8
680.93734473048789,21
681.89560696662011,2.5
682.85368503004611,13
683.81157895634169,12
684.76928878106992,28
