-777.87311982425126,35
-776.63374739947358,36
-775.39461482227671,32.400001525878906
-774.15572204389719,42.599998474121094
-772.91706901559337,36.599998474121094
-771.67865568863454,40.400001525878906
-770.44048201429,50.400001525878906
-769.20254794384346,53.400001525878906
-767.96485342860433,33
-766.7273984198855,45.200000762939453
-765.49018286900719,46
-764.25320672730777,39.400001525878906
-763.01646994613657,35.799999237060547
-761.77997247685744,29.200000762939453
-760.5437142708488,35.799999237060547
-759.307695279489,50.599998474121094
-758.07191545417118,32.799999237060547
-756.83637474631723,36.400001525878906
-755.601073107342,51.799999237060547
-754.36601048868215,47.599998474121094
-753.13118684178153,39.799999237060547
-751.89660211810587,43.400001525878906
-750.66225626912092,33.200000762939453
-749.42814924630693,39.400001525878906
-748.19428100116238,39.599998474121094
-746.960651485193,32.400001525878906
-745.72726064991912,32
-744.49410844686827,57.799999237060547
-743.26119482758622,39.400001525878906
-742.02851974362966,34.599998474121094
-740.79608314656616,35.599998474121094
-739.5638849879706,57
-738.331925219436,45.400001525878906
-737.10020379257367,43.599998474121094
-735.86872065898388,45.599998474121094
-734.63747577031063,48.400001525878906
-733.406469078187,46
-732.17570053426061,55
-730.94517009020092,52
-729.71487769768464,50.200000762939453
-728.48482330838851,57.200000762939453
-727.25500687402564,48
-726.02542834630549,48.400001525878906
-724.79608767694481,43.200000762939453
-723.56698481768581,39.799999237060547
-722.33811972027434,60.599998474121094
-721.10949233647079,43
-719.88110261805014,53.599998474121094
-718.652950516791,42
-717.42503598449366,49.400001525878906
-716.19735897296232,51.200000762939453
-714.96991943401918,36.200000762939453
-713.74271731949739,43.200000762939453
-712.515752581241,53.799999237060547
-711.28902517110146,65.4000015258789
-710.06253504095184,55.200000762939453
-708.83628214267264,43.799999237060547
-707.610266428148,54.400001525878906
-706.384487849291,67.5999984741211
-705.15894635801124,51.200000762939453
-703.93364190623652,64.800003051757813
-702.70857444590911,52.200000762939453
-701.48374392898586,55.200000762939453
-700.25915030741635,55.400001525878906
-699.03479353318289,47.599998474121094
-697.81067355827872,53.200000762939453
-696.58679033470071,61.799999237060547
-695.36314381444936,54
-694.1397339495652,54.200000762939453
-692.91656069207056,69.800003051757813
-691.69362399401689,67
-690.47092380745926,61.599998474121094
-689.24846008447821,67.4000015258789
-688.02623277714338,44.599998474121094
-686.80424183756077,57.400001525878906
-685.58248721782911,64.5999984741211
-684.360968870069,38.200000762939453
-683.13968674641546,82.800003051757813
-681.91864079900733,52.400001525878906
-680.69783097999425,56
-679.4772572415477,44.799999237060547
-678.25691953584283,58
-677.0368178150693,61
-675.81695203143136,58.599998474121094
-674.59732213714051,45.799999237060547
-673.37792808442282,47.799999237060547
-672.15876982551163,68.5999984741211
-670.9398473126621,42.799999237060547
-669.72116049812939,53
-668.50270933419051,64
-667.28449377312245,69.199996948242188
-666.0665137672313,45.400001525878906
-664.84876926881952,61.599998474121094
-663.63126023020413,56.599998474121094
-662.413986603724,61.599998474121094
-661.19694834172151,58.200000762939453
-659.9801453965465,58.599998474121094
-658.76357772057054,64
-657.54724526617247,71.800003051757813
-656.33114798573843,56.799999237060547
-655.11528583168,66.4000015258789
-653.89965875640155,57.799999237060547
-652.68426671233283,69.800003051757813
-651.46910965191455,70.4000015258789
-650.25418752759469,65.199996948242188
-649.03950029183216,51.599998474121094
-647.825047897104,70.5999984741211
-646.61083029589463,59.400001525878906
-645.39684744069928,56.799999237060547
-644.18309928402778,59.200000762939453
-642.96958577839359,56.200000762939453
-641.75630687633929,65
-640.54326253040745,45.799999237060547
-639.33045269314425,53.599998474121094
-638.117877317125,53
-636.90553635492142,68.5999984741211
-635.69342975913059,59.400001525878906
-634.481557482357,60.599998474121094
-633.26991947720853,56
-632.05851569631523,48
-630.84734609231418,76.199996948242188
-629.63641061784983,50.599998474121094
-628.4257092255848,47.599998474121094
-627.21524186819988,56.200000762939453
-626.00500849836862,48
-624.79500906879366,71.4000015258789
-623.58524353217763,59.599998474121094
-622.37571184124863,62.799999237060547
-621.1664139487275,68.4000015258789
-619.95734980736415,56.599998474121094
-618.74851936991581,57.200000762939453
-617.539922589136,81.800003051757813
-616.33155941781479,41.200000762939453
-615.12342980873473,64.199996948242188
-613.91553371470036,59.200000762939453
-612.70787108852346,57.599998474121094
-611.50044188302672,51.400001525878906
-610.29324605104739,55.799999237060547
-609.08628354543725,54.400001525878906
-607.87955431905175,58.599998474121094
-606.67305832475722,59.400001525878906
-605.46679551544912,66.5999984741211
-604.26076584400835,67.5999984741211
-603.05496926335218,51.400001525878906
-601.849405726387,53
-600.64407518604821,74.800003051757813
-599.438977595275,66
-598.234112907021,70
-597.02948107425073,64.199996948242188
-595.82508204993974,64.4000015258789
-594.62091578707441,66.4000015258789
-593.41698223864842,52.599998474121094
-592.21328135768454,73.800003051757813
-591.009813097191,70.800003051757813
-589.80657741020877,75.800003051757813
-588.60357424978247,82.5999984741211
-587.4008035689676,70.5999984741211
-586.19826532083425,72.5999984741211
-584.99595945845977,80.800003051757813
-583.793885934936,84
-582.5920447033659,73.199996948242188
-581.39043571686307,59.599998474121094
-580.18905892855764,75
-578.98791429158518,85.4000015258789
-577.78700175909034,67.4000015258789
-576.58632128423778,68.4000015258789
-575.38587282020308,75
-574.1856563201618,66
-572.98567173731681,62.799999237060547
-571.78591902487278,67.4000015258789
-570.58639813603986,78.4000015258789
-569.38710902406274,76.199996948242188
-568.18805164217156,89
-566.98922594362557,67.800003051757813
-565.790631881684,61.200000762939453
-564.59226940962253,86.5999984741211
-563.39413848073127,75.4000015258789
-562.19623904831133,55.400001525878906
-560.99857106566742,87.199996948242188
-559.80113448612792,43.400001525878906
-558.60392926301938,70.199996948242188
-557.40695534968654,74.800003051757813
-556.21021269949415,74
-555.0137012658015,82.199996948242188
-553.81742100199153,78.800003051757813
-552.62137186145628,77.199996948242188
-551.4255537975896,76.199996948242188
-550.22996676381626,61.799999237060547
-549.03461071355377,71.800003051757813
-547.8394856002451,88
-546.64459137733138,67
-545.449927998272,91.199996948242188
-544.25549541654073,73.5999984741211
-543.06129358562066,85.4000015258789
-541.86732245900566,67.199996948242188
-540.67358199019873,67.199996948242188
-539.48007213271376,79
-538.28679284007922,77.800003051757813
-537.09374406584539,76.800003051757813
-535.900925763548,80.800003051757813
-534.70833788675736,68.4000015258789
-533.51598038904558,90.5999984741211
-532.32385322399932,75.5999984741211
-531.13195634520889,79
-529.94028970629006,76
-528.74885326085314,63.799999237060547
-527.55764696253573,76.4000015258789
-526.36667076497724,81
-525.17592462183165,86.4000015258789
-523.985408486762,74.4000015258789
-522.79512231344415,68.199996948242188
-521.60506605556839,71
-520.41523966682871,79
-519.22564310093912,67
-518.0362763116209,88.800003051757813
-516.84713925260257,67.199996948242188
-515.65823187763453,85.4000015258789
-514.46955414046715,79.5999984741211
-513.28110599486718,94
-512.09288739461954,85
-510.90489829350736,82.199996948242188
-509.71713864533194,64.800003051757813
-508.52960840390369,72.800003051757813
-507.3423075230512,87
-506.15523595660488,84.800003051757813
-504.96839365841697,66.199996948242188
-503.78178058233607,67.5999984741211
-502.59539668223624,81.199996948242188
-501.4092419119952,69.800003051757813
-500.223316225507,106
-499.0376195766712,84.199996948242188
-497.85215191940188,65.199996948242188
-496.666913207624,94
-495.48190339527719,92
-494.29712243630638,68
-493.11257028467116,70
-491.928246894342,73.800003051757813
-490.7441522193003,87.5999984741211
-489.56028621353471,73
-488.37664883105754,93.800003051757813
-487.19324002587746,79.4000015258789
-486.01005975202315,71.5999984741211
-484.8271079635324,89.800003051757813
-483.6443846144557,99.5999984741211
-482.46188965885085,84.800003051757813
-481.27962305079018,91.4000015258789
-480.09758474435512,95.4000015258789
-478.91577469364165,93.4000015258789
-477.73419285275304,74.4000015258789
-476.55283917580709,67.800003051757813
-475.37171361693436,95.800003051757813
-474.19081613026719,84.4000015258789
-473.010146669958,78.199996948242188
-471.82970519017181,88.4000015258789
-470.64949164507379,84.5999984741211
-469.46950598885633,84
-468.28974817570452,97.800003051757813
-467.1102181598344,95.800003051757813
-465.93091589545475,92
-464.75184133679977,82.800003051757813
-463.57299443810552,88
-462.39437515362624,92.4000015258789
-461.2159834376198,87.4000015258789
-460.03781924436043,97.5999984741211
-458.85988252813513,102
-457.68217324323632,92.199996948242188
-456.50469134396917,120
-455.32743678465886,83
-454.15040951962692,102.40000152587891
-452.97360950321672,96.199996948242188
-451.79703668977709,89.800003051757813
-450.62069103367321,96.5999984741211
-449.4445724892721,96.199996948242188
-448.26868101096989,102.59999847412109
-447.09301655315357,79.800003051757813
-445.9175790702302,95.4000015258789
-444.74236851661954,87.199996948242188
-443.56738484675407,88.800003051757813
-442.39262801506811,113.59999847412109
-441.21809797601236,78.199996948242188
-440.0437946840575,101.59999847412109
-438.86971809366878,95.5999984741211
-437.69586815933872,102.59999847412109
-436.52224483555256,96.800003051757813
-435.34884807682647,96.5999984741211
-434.17567783767481,94.4000015258789
-433.00273407262466,104.19999694824219
-431.83001673621948,113.40000152587891
-430.65752578300453,89
-429.4852611675542,89.5999984741211
-428.31322284443013,124
-427.14141076821943,92.4000015258789
-425.96982489351649,94
-424.79846517493388,103.59999847412109
-423.62733156708055,95.5999984741211
-422.45642402459453,106.80000305175781
-421.28574250211022,96.4000015258789
-420.1152869542766,103.80000305175781
-418.94505733575534,114.40000152587891
-417.77505360122632,108.80000305175781
-416.60527570536397,89.800003051757813
-415.43572360287,102.19999694824219
-414.26639724844608,93.4000015258789
-413.09729659681216,101.19999694824219
-411.92842160268992,126.40000152587891
-410.7597722208302,98.5999984741211
-409.59134840596926,103
-408.42315011287792,98.800003051757813
-407.2551772963252,99.199996948242188
-406.087429911091,90
-404.9199079119735,107.40000152587891
-403.75261125377619,122
-402.58553989131542,101.59999847412109
-401.41869377941293,104.19999694824219
-400.25207287291232,104
-399.08567712666627,110.80000305175781
-397.919506495522,107
-396.75356093436312,109.40000152587891
-395.58784039806596,107
-394.42234484151959,98.800003051757813
-393.25707421963307,102.80000305175781
-392.09202848732275,110
-390.92720759950862,136
-389.76261151112521,103.19999694824219
-388.59824017713072,101.19999694824219
-387.43409355247422,129
-386.27017159212846,101.40000152587891
-385.10647425107527,106.40000152587891
-383.94300148430193,114.80000305175781
-382.77975324681393,117.80000305175781
-381.616729493624,129.39999389648438
-380.453930179754,112.80000305175781
-379.29135526024038,110
-378.129004690134,123.80000305175781
-376.96687842448227,117.80000305175781
-375.80497641835791,103
-374.64329862683917,123.59999847412109
-373.4818450050152,101.80000305175781
-372.32061550798426,119
-371.15961009086277,109.40000152587891
-369.99882870877082,135.19999694824219
-368.83827131683756,106
-367.677937870214,109.80000305175781
-366.51782832404751,103.59999847412109
-365.3579426335109,119.40000152587891
-364.19828075377518,109.80000305175781
-363.03884264003136,97.800003051757813
-361.87962824747046,118.80000305175781
-360.7206375313126,122.19999694824219
-359.56187044677063,105.80000305175781
-358.403326949081,123
-357.24500699348027,112.59999847412109
-356.08691053522307,120.40000152587891
-354.92903752956954,112.19999694824219
-353.771387931798,100.80000305175781
-352.61396169719228,114
-351.45675878105067,113.80000305175781
-350.29977913867333,120.80000305175781
-349.14302272538407,127.40000152587891
-347.98648949651215,102.40000152587891
-346.83017940739046,120.80000305175781
-345.67409241337191,110
-344.51822846982031,101.80000305175781
-343.36258753210313,125.40000152587891
-342.20716955560965,115
-341.05197449572188,131
-339.89700230785638,115.80000305175781
-338.74225294741518,111
-337.58772636983667,119.40000152587891
-336.43342253054652,130.19999694824219
-335.27934138499768,114
-334.12548288865037,105.80000305175781
-332.97184699696481,119
-331.81843366542853,134.39999389648438
-330.66524284953266,106.40000152587891
-329.51227450476654,138.19999694824219
-328.35952858665769,140.19999694824219
-327.20700505071909,122.19999694824219
-326.05470385248555,114.19999694824219
-324.90262494750459,132.19999694824219
-323.75076829132558,117.59999847412109
-322.59913383951789,134
-321.44772154765633,104.80000305175781
-320.29653137132846,120.40000152587891
-319.14556326613092,115.40000152587891
-317.99481718767311,132.19999694824219
-316.84429309157531,136.80000305175781
-315.69399093346874,92.5999984741211
-314.54391066899007,142.80000305175781
-313.39405225379596,126.19999694824219
-312.24441564354129,111.80000305175781
-311.09500079390455,128.19999694824219
-309.94580766056788,150.80000305175781
-308.79683619922253,119.80000305175781
-307.64808636558337,158.60000610351563
-306.49955811535619,129.19999694824219
-305.35125140426862,141.19999694824219
-304.203166188061,128.19999694824219
-303.05530242247733,126
-301.90766006327794,135.19999694824219
-300.76023906623413,118.80000305175781
-299.61303938712081,125
-298.46606098173288,120
-297.31930380586527,159.19999694824219
-296.17276781533837,118
-295.02645296596893,130
-293.88035921359551,139.39999389648438
-292.73448651404942,146
-291.58883482319834,146.60000610351563
-290.44340409690449,151.19999694824219
-289.29819429103554,135.60000610351563
-288.15320536148647,153.80000305175781
-287.0084372641486,141
-285.86388995493689,145.80000305175781
-284.7195633897627,124.59999847412109
-283.57545752455371,137.39999389648438
-282.431572315254,154.19999694824219
-281.28790771781496,163.39999389648438
-280.1444636881879,152.39999389648438
-279.00124018235692,129.19999694824219
-277.8582371562934,146.19999694824219
-276.71545456599597,126.40000152587891
-275.57289236746692,158.19999694824219
-274.43055051671945,146.80000305175781
-273.28842896977221,173.60000610351563
-272.14652768267115,155.60000610351563
-271.00484661145128,146.80000305175781
-269.86338571217493,128.39999389648438
-268.72214494090622,134
-267.581124253722,164.80000305175781
-266.44032360671372,155.19999694824219
-265.29974295597458,151.19999694824219
-264.159382257616,153
-263.01924146776037,145.80000305175781
-261.87932054252815,154.60000610351563
-260.73961943807444,150.60000610351563
-259.60013811053796,168.19999694824219
-258.46087651608468,161.60000610351563
-257.32183461088971,151.39999389648438
-256.18301235113358,166.39999389648438
-255.04440969300595,151.19999694824219
-253.90602659271462,165.60000610351563
-252.76786300647473,153.60000610351563
-251.62991889051045,162.19999694824219
-250.49219420105146,165.80000305175781
-249.35468889435288,156.80000305175781
-248.217402926668,149
-247.08033625425924,157.60000610351563
-245.94348883341445,176
-244.80686062040877,165.80000305175781
-243.67045157154826,152.39999389648438
-242.53426164314442,161.39999389648438
-241.39829079150877,180.19999694824219
-240.26253897297829,150.39999389648438
-239.12700614388814,184.39999389648438
-237.99169226059348,166.80000305175781
-236.85659727945676,149.60000610351563
-235.72172115684771,167.39999389648438
-234.58706384914331,175.60000610351563
-233.4526253127442,183.19999694824219
-232.31840550405468,158.60000610351563
-231.18440437947902,188
-230.05062189545242,180.80000305175781
-228.91705800840282,171.39999389648438
-227.78371267477996,169.80000305175781
-226.65058585103725,166.60000610351563
-225.51767749363898,167.80000305175781
-224.38498755906403,167
-223.2525160037967,158.19999694824219
-222.1202627843395,182.80000305175781
-220.98822785719858,174.19999694824219
-219.85641117888918,189
-218.7248127059429,187
-217.59343239489681,180
-216.46227020230072,182.19999694824219
-215.3313260847226,162
-214.20059999872137,167.19999694824219
-213.07009190087956,158.19999694824219
-211.9398017477979,177.19999694824219
-210.80972949606621,183
-209.67987510230523,172.19999694824219
-208.5502385231357,169.80000305175781
-207.42081971518564,179
-206.29161863510308,184
-205.16263523954149,172.19999694824219
-204.03386948516163,190.39999389648438
-202.90532132864428,183.19999694824219
-201.77699072666474,183.60000610351563
-200.64887763592742,191.39999389648438
-199.52098201313311,184.60000610351563
-198.39330381500076,194.80000305175781
-197.26584299825117,166
-196.13859951962695,187.80000305175781
-195.01157333587253,198
-193.88476440374143,194.80000305175781
-192.75817268001083,200.39999389648438
-191.63179812144881,215.80000305175781
-190.50564068485255,217.60000610351563
-189.3797003270156,208.60000610351563
-188.25397700474423,211
-187.12847067486291,211.39999389648438
-186.00318129420339,227.19999694824219
-184.87810881960104,236.39999389648438
-183.75325320790944,227.60000610351563
-182.62861441598398,233.80000305175781
-181.50419240070187,260
-180.37998711894033,232
-179.25599852759296,257.39999389648438
-178.13222658356062,257.20001220703125
-177.00867124376236,284.79998779296875
-175.88533246510815,276.60000610351563
-174.76221020454068,289.39999389648438
-173.63930441900084,251.19999694824219
-172.51661506544224,274.20001220703125
-171.39414210082759,285.39999389648438
-170.27188548212871,281.20001220703125
-169.14984516633558,292.60000610351563
-168.02802111043638,300.39999389648438
-166.90641327144112,291.20001220703125
-165.78502160636344,327.39999389648438
-164.66384607223154,310.39999389648438
-163.54288662607541,334.20001220703125
-162.4221432249451,309.39999389648438
-161.30161582589426,356.79998779296875
-160.18130438598928,326.39999389648438
-159.06120886230929,368.20001220703125
-157.94132921194432,326.20001220703125
-156.82166539198624,301.79998779296875
-155.70221735953965,325.20001220703125
-154.58298507173095,332.79998779296875
-153.46396848568111,324.39999389648438
-152.34516755853474,313.20001220703125
-151.22658224743282,336.79998779296875
-150.10821250953813,299.79998779296875
-148.99005830202077,326.60000610351563
-147.87211958205626,326.20001220703125
-146.75439630683832,351.20001220703125
-145.63688843355885,332.79998779296875
-144.51959591943705,356.60000610351563
-143.40251872168847,367.39999389648438
-142.28565679753956,386.39999389648438
-141.16901010423499,358.60000610351563
-140.05257859902849,389.60000610351563
-138.93636223917383,392.79998779296875
-137.82036098194294,406
-136.70457478462595,420
-135.58900360449843,404
-134.47364739887416,423.39999389648438
-133.35850612506329,392.20001220703125
-132.24357974038321,433.79998779296875
-131.12886820217136,428.39999389648438
-130.01437146776334,401.20001220703125
-128.90008949451476,414
-127.78602223979033,408.20001220703125
-126.67216966095839,407.60000610351563
-125.55853171540366,353.39999389648438
-124.44510836051813,382
-123.33189955371017,367.39999389648438
-122.2189052523845,355.20001220703125
-121.10612541397313,376.79998779296875
-119.9935599959008,359
-118.88120895561769,341.39999389648438
-117.76907225057403,339.20001220703125
-116.65714983823818,377.79998779296875
-115.54544167607855,393.79998779296875
-114.43394772158354,383.20001220703125
-113.32266793224335,376
-112.21160226556458,391.20001220703125
-111.10075067906291,398.60000610351563
-109.99011313026131,401
-108.87968957669545,407.79998779296875
-107.76947997590833,439.60000610351563
-106.65948428545926,451.79998779296875
-105.54970246290759,474.20001220703125
-104.44013446582903,486
-103.33078025181567,522.5999755859375
-102.22163977845048,585.20001220703125
-101.11271300335284,684.20001220703125
-100.00399988412755,821
-98.8955003784049,880.4000244140625
-97.787214443818812,984.5999755859375
-96.679142038015925,942.79998779296875
-95.571283118651991,822
-94.46363764339003,742.4000244140625
-93.356205569909434,728.20001220703125
-92.248986855895055,780
-91.141981459042654,825.5999755859375
-90.035189337055272,829
-88.928610447654137,723.20001220703125
-87.8222447485623,670
-86.716092197515536,634
-85.610152752264185,641.5999755859375
-84.504426370558576,638
-83.3989130101636,651.20001220703125
-82.29361262886232,648.4000244140625
-81.188525184439641,585.4000244140625
-80.083650634691367,604.20001220703125
-78.978988937416943,611.4000244140625
-77.8745400504431,648.79998779296875
-76.7703039315893,679.5999755859375
-75.666280538693172,663.4000244140625
-74.56246982959965,714.5999755859375
-73.45887176217002,669.5999755859375
-72.355486294265575,696.4000244140625
-71.2523133837658,717.4000244140625
-70.149352988557439,721.20001220703125
-69.046605066534539,741
-67.944069575602043,772.4000244140625
-66.84174647367945,803.4000244140625
-65.739635718693535,916.5999755859375
-64.63773726857471,1030.4000244140625
-63.5360510812734,1291
-62.434577114750937,1695
-61.3333153269632,2272.39990234375
-60.232265675895178,2846.39990234375
-59.131428119522752,3274.800048828125
-58.030802615854554,3474.199951171875
-56.930389122886481,3293.199951171875
-55.830187598636257,3125.60009765625
-54.730198001132521,3004
-53.630420288413006,3239.39990234375
-52.530854418515446,4243.60009765625
-51.431500349504859,7080.60009765625
-50.332358039440805,9787.599609375
-49.233427446402857,11074.7998046875
-48.134708528470583,10641
-47.036201243741743,7500.39990234375
-45.937905550323194,5256.60009765625
-44.839821406334522,4443.60009765625
-43.74194876988804,3611.800048828125
-42.64428759913244,2713.39990234375
-41.5468378522055,2215.39990234375
-40.449599487265004,2164
-39.352572462472381,2168.199951171875
-38.255756736005424,2136
-37.159152266047386,1914
-36.062759010790614,1694
-34.966576928443828,1431.199951171875
-33.8706059772212,1566.4000244140625
-32.774846115338732,2355.60009765625
-31.679297301039696,4182.60009765625
-30.583959492563736,6112.60009765625
-29.488832648166863,7364.2001953125
-28.393916726110547,7438.39990234375
-27.299211684672628,6857.60009765625
-26.204717482129126,6786.39990234375
-25.110434076774254,6724.60009765625
-24.016361426916774,6223.2001953125
-22.922499490865448,3952.60009765625
-21.828848226945411,2069.199951171875
-20.735407593489072,1519.199951171875
-19.642177548834297,1274.5999755859375
-18.549158051340783,1180.199951171875
-17.456349059368222,1139.4000244140625
-16.363750531281767,1103.5999755859375
-15.271362425470215,1114
-14.179184700326005,1118.800048828125
-13.087217314247027,1101
-11.995460225642091,1178.5999755859375
-10.903913392940012,1196.199951171875
-9.8125767745696066,1284.800048828125
-8.7214503289651475,1295.199951171875
-7.6305340145827358,1408.199951171875
-6.5398277898821107,1484.800048828125
-5.4493316133357439,1339.199951171875
-4.3590454434179264,989
-3.26896923861932,713.79998779296875
-2.1791029574433196,1652.199951171875
-1.0894465583987767,1827.199951171875
-3.637978807091713E-12,1918.800048828125
1.0892367592168739,2270.60009765625
2.1782637607157085,721.20001220703125
3.2670810459494533,941
4.3556886563619628,1362
5.4440866333861777,1552.199951171875
6.5322750184368488,1553.5999755859375
7.6202538529305457,1510.800048828125
8.7080231782692863,1391
9.7955830358478124,1362
10.882933467048133,1304
11.970074513241343,1315
13.0570062157949,1305.4000244140625
14.143728616063527,1326
15.230241755389216,1343.199951171875
16.316545675103043,1403
17.402640416532449,1439.800048828125
18.488526020995778,1565
19.574202529791364,1776.4000244140625
20.659669984221182,2259.199951171875
21.744928425567196,3850.39990234375
22.82997789510955,6767.2001953125
23.914818434106564,8672.7998046875
24.99945008382565,9863.599609375
26.083872885503297,10015.7998046875
27.168086880381452,9586.2001953125
28.252092109691148,10441.7998046875
29.33588861464159,10325.400390625
30.419476436449258,8005.2001953125
31.502855616305169,4715
32.586026195402155,2670.60009765625
33.668988214920319,2208.39990234375
34.751741716028846,2293.39990234375
35.834286739884192,2637
36.916623327637353,3036.800048828125
37.998751520428414,3397.39990234375
39.080671359392,3441
40.162382885640909,3404.199951171875
41.243886140291579,3739.800048828125
42.325181164447713,4818.60009765625
43.406267999200281,6325.60009765625
44.4871466856257,7693.7998046875
45.5678172648004,9778
46.648279777786229,14301.599609375
47.72853426563961,17857.400390625
48.8085807694024,19060.599609375
49.888419330107354,17376
50.968049988779967,10940.2001953125
52.047472786436629,6704.60009765625
53.126687764075541,5534.60009765625
54.205694962698544,5468.2001953125
55.284494423289289,5681
56.363086186827786,6048.2001953125
57.44147029427404,6313.7998046875
58.519646786589874,6143.2001953125
59.597615704718919,5340.2001953125
60.67537708960117,4186.7998046875
61.752930982163889,3136.39990234375
62.83027742332888,2376.60009765625
63.90741645399612,1943
64.984348115074681,1709.199951171875
66.061072447448169,1521.4000244140625
67.13758949199655,1449.5999755859375
68.213899289597975,1395.800048828125
69.29000188109967,1383.5999755859375
70.36589730736705,1376.199951171875
71.441585609234608,1352.5999755859375
72.517066827535018,1374.800048828125
73.592341003088222,1331.199951171875
74.667408176715981,1333.800048828125
75.742268389207311,1291.800048828125
76.816921681369422,1317.5999755859375
77.891368093980418,1264
78.965607667816585,1240.199951171875
80.039640443639655,1176.4000244140625
81.113466462209544,1205.800048828125
82.187085764271615,1263.800048828125
83.260498390560315,1306.800048828125
84.333704381804637,1365.4000244140625
85.40670377871902,1326.800048828125
86.479496622014267,1407.5999755859375
87.552082952388446,1518.800048828125
88.624462810528712,1711.800048828125
89.6966362371113,1901.5999755859375
90.76860327281247,1936.800048828125
91.840363958286616,1773.4000244140625
92.911918334189977,1633.4000244140625
93.983266441158776,1681.199951171875
95.054408319829236,1992.800048828125
96.12534401081939,2319.39990234375
97.19607355474,2409.60009765625
98.2665969922,2268
99.336914363786491,1898.4000244140625
100.40702571009024,1640
101.47693107168197,1392.800048828125
102.54663048912334,1243.199951171875
103.61612400297781,1171.800048828125
104.68541165378701,1082.199951171875
105.75449348208713,1078
106.82336952840706,984.79998779296875
107.89203983326297,984.79998779296875
108.96050443715831,977.79998779296875
110.02876338060378,941.79998779296875
111.09681670407736,924.79998779296875
112.16466444806247,914.79998779296875
113.23230665302981,900.79998779296875
114.2997433594428,869.20001220703125
115.36697460774849,856.79998779296875
116.43400043838665,870
117.50082089179705,846.20001220703125
118.56743600839945,867.5999755859375
119.63384582860272,891.20001220703125
120.70005039281386,879
121.76604974143083,875.5999755859375
122.83184391483519,914.79998779296875
123.89743295340486,911.79998779296875
124.96281689750322,965.20001220703125
126.02799578748636,984.4000244140625
127.09296966370857,1045
128.15773856649867,1101.800048828125
129.22230253619455,1145.800048828125
130.28666161311048,1139.5999755859375
131.35081583755345,1173.4000244140625
132.414765249825,1178
133.47850989022481,1184.4000244140625
134.54204979901988,1207.199951171875
135.60538501649535,1219
136.66851558290364,1188.4000244140625
137.73144153850444,1261.5999755859375
138.79416292353926,1178
139.85667977824414,1174.5999755859375
140.91899214284422,1203.199951171875
141.9811000575537,1144.5999755859375
143.0430035625759,1158.199951171875
144.10470269811231,1126
145.16619750435348,1060.199951171875
146.22748802146998,1075.5999755859375
147.28857428963602,1081.199951171875
148.3494563490076,1016
149.41013423973891,1005.5999755859375
150.47060800196778,1033.199951171875
151.53087767582292,1052.4000244140625
152.59094330143125,1053.800048828125
153.65080491890512,1098.4000244140625
154.71046256834779,1108.800048828125
155.76991628984433,1154
156.82916612349436,1148.5999755859375
157.88821210936294,1210.800048828125
158.94705428751695,1179
160.00569269801963,1261
161.06412738090876,1271
162.12235837622939,1245
163.18038572400837,1220
164.23820946425803,1207.199951171875
165.29582963700341,1207.4000244140625
166.35324628222952,1113.4000244140625
167.41045943993777,1124.4000244140625
168.4674691501059,1104.5999755859375
169.52427545270439,1076.4000244140625
170.58087838770371,1064
171.63727799505432,1102.5999755859375
172.6934743146976,1074.5999755859375
173.74946738657491,1087.199951171875
174.80525725060761,1086.800048828125
175.86084394671525,1044.800048828125
176.91622751480463,1058.4000244140625
177.97140799477529,1022.7999877929688
179.02638542651403,987.5999755859375
180.08115984989854,946.20001220703125
181.13573130480836,915.4000244140625
182.1900998310939,885.79998779296875
183.24426546861469,917
184.29822825721203,862.79998779296875
185.35198823671635,864.20001220703125
186.40554544695078,796.4000244140625
187.45889992773846,793
188.51205171887523,779.5999755859375
189.5650008601624,740.5999755859375
190.61774739138855,726.5999755859375
191.67029135232588,699.20001220703125
192.72263278274659,657.5999755859375
193.77477172241379,635.5999755859375
194.82670821106694,640.79998779296875
195.87844228846188,633
196.92997399431806,639.20001220703125
197.98130336836039,636.4000244140625
199.03243045030285,625.20001220703125
200.083355279854,612.79998779296875
201.13407789669873,607
202.18459834053465,603.5999755859375
203.23491665102665,588.79998779296875
204.28503286785053,583.4000244140625
205.33494703066026,577.5999755859375
206.38465917910617,585.4000244140625
207.43416935282403,592
208.48347759144417,609.79998779296875
209.53258393459691,587
210.58148842188348,575.79998779296875
211.63019109291054,592.20001220703125
212.67869198727021,609.79998779296875
213.726991144551,610.20001220703125
214.775088604325,602.79998779296875
215.82298440615341,628.20001220703125
216.8706785896029,586.79998779296875
217.91817119421466,602.20001220703125
218.96546225952443,585.4000244140625
220.01255182506975,602.20001220703125
221.05943993036635,629.4000244140625
222.10612661491905,617.79998779296875
223.15261191823993,607
224.19889587981743,595.79998779296875
225.24497853913635,545.4000244140625
226.29085993566514,583.79998779296875
227.33654010887221,580.5999755859375
228.38201909822055,555
229.42729694314221,568.79998779296875
230.47237368309288,565.79998779296875
231.51724935748462,560.4000244140625
232.56192400574764,552.4000244140625
233.60639766728673,533.20001220703125
234.65067038150482,541
235.69474218779396,538.79998779296875
236.73861312553527,541.79998779296875
237.78228323410804,512.4000244140625
238.82575255286974,544.79998779296875
239.86902112117787,534.4000244140625
240.9120889783826,532
241.95495616381777,524.5999755859375
242.99762271681357,517.79998779296875
244.04008867668745,513.5999755859375
245.08235408274959,508.60000610351563
246.1244189743029,508.60000610351563
247.16628339063755,534
248.20794737103279,512.20001220703125
249.24941095476788,527.4000244140625
250.29067418110571,539.5999755859375
251.33173708930008,512.4000244140625
252.37259971859567,533.20001220703125
253.41326210823536,532.79998779296875
254.45372429744384,518.5999755859375
255.49398632544035,545.4000244140625
256.53404823143683,516.4000244140625
257.57391005463069,508.79998779296875
258.61357183421751,530.5999755859375
259.65303360938196,525.5999755859375
260.69229541928871,530
261.73135730310787,531.4000244140625
262.77021929999864,547.20001220703125
263.80888144910386,520
264.84734378955909,514.79998779296875
265.88560636049988,527.4000244140625
266.92366920103996,536.4000244140625
267.9615323502876,536.20001220703125
268.99919584735289,510.60000610351563
270.03665973132047,536.79998779296875
271.07392404127677,515.79998779296875
272.1109888162955,523.20001220703125
273.14785409544129,545.5999755859375
274.18451991776965,563.20001220703125
275.22098632233428,547.20001220703125
276.25725334816525,533.20001220703125
277.29332103429442,539.20001220703125
278.32918941974458,560.4000244140625
279.36485854352395,579.79998779296875
280.40032844463531,548
281.43559916207232,558
282.4706707348214,582.79998779296875
283.50554320185074,512.20001220703125
284.540216602134,566
285.57469097462854,558.4000244140625
286.60896635827521,596.20001220703125
287.6430427920186,579.5999755859375
288.67692031479055,546.79998779296875
289.71059896550651,600.5999755859375
290.74407878308375,596.5999755859375
291.777359806425,594.79998779296875
292.81044207441846,599.79998779296875
293.84332562596137,660.4000244140625
294.87601049991827,631.79998779296875
295.90849673516095,618.4000244140625
296.94078437055396,613.20001220703125
297.97287344493816,632
299.00476399715808,587.4000244140625
300.03645606604368,616.20001220703125
301.06794969041584,583.79998779296875
302.09924490909361,587
303.13034176088149,579
304.16124028456943,614.79998779296875
305.1919405189492,598.79998779296875
306.222442502798,600.4000244140625
307.25274627488216,612.79998779296875
308.2828518739625,597.20001220703125
309.31275933879624,621.20001220703125
310.34246870811512,620.4000244140625
311.37198002066361,606.20001220703125
312.40129331515891,635.4000244140625
313.43040863031638,639.20001220703125
314.45932600484593,596.4000244140625
315.48804547744476,570.20001220703125
316.51656708679729,597.20001220703125
317.54489087158618,583.20001220703125
318.57301687048675,595.4000244140625
319.60094512215619,597.4000244140625
320.62867566524437,584.79998779296875
321.65620853840483,593.4000244140625
322.68354378026197,567
323.71068142945296,589.5999755859375
324.73762152458949,602
325.76436410428141,589.20001220703125
326.79090920712588,610.4000244140625
327.81725687171638,580.4000244140625
328.84340713663732,583.20001220703125
329.86936004045674,578.79998779296875
330.8951156217463,588.4000244140625
331.92067391905039,582.4000244140625
332.9460349709243,577.4000244140625
333.97119881590334,593.20001220703125
334.99616549251732,616.20001220703125
336.02093503928518,606.5999755859375
337.04550749471673,598.5999755859375
338.06988289731453,591.4000244140625
339.09406128557566,581.5999755859375
340.11804269798085,609.20001220703125
341.14182717300719,592.20001220703125
342.16541474912265,596.4000244140625
343.18880546478249,612.20001220703125
344.21199935844015,604
345.23499646853088,598.79998779296875
346.25779683349174,585
347.2804004917416,590.4000244140625
348.30280748169571,609.4000244140625
349.3250178417602,639.5999755859375
350.34703161032849,611
351.36884882579034,598.4000244140625
352.39046952652461,608.20001220703125
353.41189375090107,593.20001220703125
354.43312153727675,592.79998779296875
355.45415292401049,598.5999755859375
356.47498794944113,597.79998779296875
357.49562665190388,598.20001220703125
358.51606906973029,589.4000244140625
359.53631524122466,615.20001220703125
360.55636520471126,597
361.576218998478,632.20001220703125
362.59587666081825,600.79998779296875
363.6153382300181,584
364.63460374434362,639.20001220703125
365.65367324206454,627.79998779296875
366.67254676143239,605
367.69122434069686,644
368.70970601810041,652
369.7279918318618,631.79998779296875
370.74608182021075,625.79998779296875
371.7639760213533,618.20001220703125
372.78167447349733,599.79998779296875
373.79917721483071,622.20001220703125
374.81648428354674,605.20001220703125
375.8335957178133,597.5999755859375
376.85051155580732,605.5999755859375
377.86723183568211,605.4000244140625
378.88375659558915,618.4000244140625
379.90008587367265,592.4000244140625
380.91621970806045,617.20001220703125
381.932158136884,586.5999755859375
382.94790119825484,607
383.96344893028072,624.79998779296875
384.97880137105676,610.5999755859375
385.99395855867624,618.5999755859375
387.0089205312197,596.4000244140625
388.02368732675495,600.20001220703125
389.03825898334981,606.20001220703125
390.05263553905752,607.5999755859375
391.06681703192226,571.20001220703125
392.08080349998454,613.20001220703125
393.09459498126671,565.5999755859375
394.10819151379292,593
395.12159313558004,598.79998779296875
396.13479988461768,591.5999755859375
397.14781179890815,599.79998779296875
398.16062891643014,625.5999755859375
399.17325127516779,638.20001220703125
400.18567891308157,623.79998779296875
401.19791186813563,615.5999755859375
402.20995017827954,614
403.22179388145014,624.4000244140625
404.23344301558427,599.4000244140625
405.24489761860423,599.20001220703125
406.256157728425,594
407.26722338295986,631.20001220703125
408.27809462009827,581.20001220703125
409.28877147773528,601.79998779296875
410.29925399374588,636.4000244140625
411.30954220601052,625.79998779296875
412.31963615238783,604.4000244140625
413.3295358707328,629.79998779296875
414.33924139889314,609.5999755859375
415.348752774702,605
416.35807003599439,653.4000244140625
417.36719322058889,621
418.3761223662932,635.4000244140625
419.38485751091685,635.79998779296875
420.39339869224932,608.79998779296875
421.4017459480765,641.20001220703125
422.4098993161806,589.20001220703125
423.41785883432567,616.4000244140625
424.42562454027211,635.5999755859375
425.43319647177304,632.4000244140625
426.44057466656886,609.4000244140625
427.44775916239269,630.79998779296875
428.45474999697581,632.4000244140625
429.46154720802588,631
430.46815083326146,622
431.474560910372,649.79998779296875
432.48077747705611,621.79998779296875
433.48680057099773,659.5999755859375
434.4926302298627,645.20001220703125
435.49826649132046,641.79998779296875
436.50370939302593,651
437.50895897263217,648
438.5140152677759,669.4000244140625
439.51887831608292,630.5999755859375
440.52354815518265,638.4000244140625
441.52802482268817,667.79998779296875
442.532308356198,667.5999755859375
443.53639879331604,683
444.54029617162814,649.79998779296875
445.54400052871461,665
446.54751190214483,642.5999755859375
447.55083032947732,672.5999755859375
448.553955848276,660.79998779296875
449.55688849607577,661.4000244140625
450.55962831042052,651.20001220703125
451.56217532883238,670.5999755859375
452.56452958883892,656.5999755859375
453.56669112794589,675.79998779296875
454.56865998365174,658.5999755859375
455.57043619345859,664.5999755859375
456.57201979484853,661.20001220703125
457.57341082529638,666.4000244140625
458.57460932227514,666.5999755859375
459.57561532323962,703.5999755859375
460.57642886564281,667.5999755859375
461.57704998692861,672.5999755859375
462.57747872453183,681.4000244140625
463.57771511587816,690.20001220703125
464.57775919838059,675.20001220703125
465.5776110094539,688.79998779296875
466.57727058649289,690.20001220703125
467.57673796689414,684
468.5760131880379,705.4000244140625
469.57509628729895,720.5999755859375
470.57398730204477,686.4000244140625
471.57268626963196,742
472.57119322740982,736.5999755859375
473.56950821272039,757.4000244140625
474.56763126289479,738
475.56556241525323,714.4000244140625
476.56330170711954,688.4000244140625
477.5608491757921,721.5999755859375
478.55820485857475,717.4000244140625
479.55536879275314,749.20001220703125
480.55234101561109,706.79998779296875
481.54912156442151,738.79998779296875
482.54571047644822,720.4000244140625
483.54210778894412,722.20001220703125
484.5383135391603,742.4000244140625
485.53432776433874,713.5999755859375
486.53015050170507,709.79998779296875
487.52578178848125,700
488.521221661882,708
489.51647015911294,735.5999755859375
490.511527317376,716.5999755859375
491.50639317384957,730
492.50106776571556,750.79998779296875
493.49555113015049,729.79998779296875
494.48984330431631,714
495.48394432536406,744.20001220703125
496.477854230443,730.20001220703125
497.47157305668588,745.79998779296875
498.46510084122747,696.20001220703125
499.45843762119148,740
500.45158343368166,717.79998779296875
501.44453831580358,731.4000244140625
502.43730230465735,718.4000244140625
503.4298754373267,722.20001220703125
504.42225775089173,714.20001220703125
505.41444928242527,746.4000244140625
506.40645006898194,708
507.39826014762366,732.20001220703125
508.38987955538869,734.79998779296875
509.38130832932075,721.20001220703125
510.3725465064399,735.5999755859375
511.36359412377169,713.5999755859375
512.35445121832345,745
513.345117827108,707.4000244140625
514.33559398710713,746.5999755859375
515.32587973531554,751.20001220703125
516.31597510870961,772
517.305880144253,758.20001220703125
518.29559487891856,764
519.2851193496499,726.5999755859375
520.27445359339254,710.20001220703125
521.2635976470865,738
522.25255154765728,740
523.24131533202308,713.20001220703125
524.22988903709665,735.4000244140625
525.21827269978348,735.20001220703125
526.20646635697267,729.20001220703125
527.19447004554968,750.4000244140625
528.18228380239634,702.20001220703125
529.16990766437993,727.5999755859375
530.15734166836046,749.4000244140625
531.14458585119428,688
532.13164024971957,743.4000244140625
533.11850490077813,727.20001220703125
534.1051798411936,720.5999755859375
535.09166510778778,766.20001220703125
536.0779607373679,732.4000244140625
537.06406676674123,744
538.04998323269865,737
539.03571017202739,751.5999755859375
540.02124762150379,767.20001220703125
541.00659561790053,729.5999755859375
541.99175419797393,766.20001220703125
542.97672339848032,763
543.96150325615963,723
544.94609380775364,742.79998779296875
545.93049508998593,756
546.91470713957824,768.20001220703125
547.89872999324143,743.20001220703125
548.88256368767543,748
549.86620825957834,759.4000244140625
550.84966374563555,753.20001220703125
551.83293018252334,758
552.81600760691072,765
553.79889605546123,774.5999755859375
554.78159556482933,729.5999755859375
555.76410617165857,775
556.74642791258339,772.79998779296875
557.72856082423277,766.4000244140625
558.71050494323026,763.20001220703125
559.692260306183,791.79998779296875
560.67382694969274,772.4000244140625
561.65520491036477,770.79998779296875
562.63639422477536,749.4000244140625
563.617394929508,757
564.59820706113169,786.79998779296875
565.5788306562099,777.4000244140625
566.55926575129524,784.5999755859375
567.53951238293848,776.79998779296875
568.51957058766675,778.79998779296875
569.49944040201626,778.4000244140625
570.47912186250869,741.79998779296875
571.45861500565115,801.5999755859375
572.43791986795441,748.20001220703125
573.417036485911,774
574.3959648960099,746.79998779296875
575.37470513472908,798.4000244140625
576.35325723854476,750.20001220703125
577.3316212439131,782.79998779296875
578.309797187294,765.20001220703125
579.28778510513439,793
580.26558503387241,789
581.24319700993874,775
582.22062106975318,793.4000244140625
583.1978572497319,788.79998779296875
584.17490558627833,763
585.15176611579591,785.79998779296875
586.12843887466624,800.5999755859375
587.1049238992764,795.5999755859375
588.08122122599343,785.5999755859375
589.05733089119167,765.79998779296875
590.03325293122,783.5999755859375
591.00898738242722,781.79998779296875
591.98453428115681,752.79998779296875
592.95989366373578,808.20001220703125
593.93506556649481,771.4000244140625
594.91005002574457,796.20001220703125
595.88484707779207,783.20001220703125
596.85945675894072,805.79998779296875
597.83387910547935,794
598.808114153695,765
599.78216193985281,796.5999755859375
600.7560225002253,796.79998779296875
601.729695871074,803.5999755859375
602.70318208864228,815.4000244140625
603.67648118917714,833.4000244140625
604.64959320891285,779
605.62251818407458,782.79998779296875
606.59525615087659,785.20001220703125
607.56780714553315,797.20001220703125
608.54017120424214,809
609.51234836320145,847.4000244140625
610.48433865859079,812.4000244140625
611.45614212658984,790.79998779296875
612.42775880336558,819.5999755859375
613.39918872508315,795.20001220703125
614.37043192788951,839.4000244140625
615.34148844793526,823.20001220703125
616.31235832134917,823.5999755859375
617.28304158426727,795.5999755859375
618.253538272802,816.79998779296875
619.2238484230711,787.20001220703125
620.19397207117981,806.5999755859375
621.16390925321321,824.79998779296875
622.13366000527276,836.5999755859375
623.103224363429,849.4000244140625
624.07260236375441,842.79998779296875
625.04179404231763,826.4000244140625
626.01079943516561,857
626.97961857835253,813.4000244140625
627.94825150791621,851.20001220703125
628.91669825988356,812.5999755859375
629.8849588702833,842
630.85303337512414,849.79998779296875
631.8209218104148,824.79998779296875
632.7886242121549,803.79998779296875
633.75614061633678,793
634.72347105893823,843.4000244140625
635.69061557593523,851
636.65757420329646,830.79998779296875
637.6243469769779,809.4000244140625
638.59093393293,847.20001220703125
639.55733510709615,840
640.5235505354085,855.79998779296875
641.48958025379216,844.4000244140625
642.45542429816669,844.79998779296875
643.4210827044426,839.79998779296875
644.38655550851945,853.79998779296875
645.351842746295,853.79998779296875
646.31694445364883,879.79998779296875
647.28186066646231,838
648.24659142060591,844.79998779296875
649.21113675193737,856.5999755859375
650.17549669631444,835.20001220703125
651.13967128958211,859.20001220703125
652.10366056757266,844.5999755859375
653.067464566122,848.5999755859375
654.03108332104784,829.20001220703125
654.99451686816428,875
655.95776524327266,835.79998779296875
656.920828482178,895.79998779296875
657.88370662066518,867.79998779296875
658.84639969451382,883.20001220703125
659.80890773950159,886.4000244140625
660.77123079139164,876.4000244140625
661.733368885938,868.20001220703125
662.69532205889118,850.4000244140625
663.65709034599786,864.79998779296875
664.61867378298484,874.20001220703125
665.58007240558072,901.5999755859375
666.54128624949954,872.4000244140625
667.50231535045532,918.20001220703125
668.46315974414392,899.20001220703125
669.42381946626119,886.79998779296875
670.38429455249025,892.5999755859375
671.34458503851238,907.4000244140625
672.30469095999615,900.79998779296875
673.2646123525974,874.5999755859375
674.224349251972,889.20001220703125
675.18390169377017,885.5999755859375
676.14326971362243,895
677.10245334716274,910.5999755859375
678.0614526300069,904.20001220703125
679.02026759777618,889.5999755859375
679.97889828607,938
680.93734473048789,925.4000244140625
681.89560696662011,882.79998779296875
682.85368503004611,915.79998779296875
683.81157895634169,900
684.76928878106992,911.20001220703125
