-777.87311982425126,19
-776.63374739947358,18.600000381469727
-775.39461482227671,16.799999237060547
-774.15572204389719,23.600000381469727
-772.91706901559337,2
-771.67865568863454,15
-770.44048201429,10.800000190734863
-769.20254794384346,24.600000381469727
-767.96485342860433,18.600000381469727
-766.7273984198855,9.3999996185302734
-765.49018286900719,16
-764.25320672730777,12
-763.01646994613657,29.799999237060547
-761.77997247685744,7.5999999046325684
-760.5437142708488,23
-759.307695279489,16.600000381469727
-758.07191545417118,9.6000003814697266
-756.83637474631723,7.1999998092651367
-755.601073107342,16
-754.36601048868215,26.399999618530273
-753.13118684178153,13
-751.89660211810587,22.600000381469727
-750.66225626912092,5.1999998092651367
-749.42814924630693,5.5999999046325684
-748.19428100116238,25
-746.960651485193,10.399999618530273
-745.72726064991912,19.399999618530273
-744.49410844686827,30.399999618530273
-743.26119482758622,4
-742.02851974362966,24.399999618530273
-740.79608314656616,13
-739.5638849879706,26.399999618530273
-738.331925219436,14.399999618530273
-737.10020379257367,22.399999618530273
-735.86872065898388,4.4000000953674316
-734.63747577031063,27.399999618530273
-733.406469078187,24
-732.17570053426061,15
-730.94517009020092,26
-729.71487769768464,11.800000190734863
-728.48482330838851,20.200000762939453
-727.25500687402564,10.600000381469727
-726.02542834630549,19.399999618530273
-724.79608767694481,25.399999618530273
-723.56698481768581,22.200000762939453
-722.33811972027434,14
-721.10949233647079,18.799999237060547
-719.88110261805014,16
-718.652950516791,17
-717.42503598449366,27.799999237060547
-716.19735897296232,11.600000381469727
-714.96991943401918,21.399999618530273
-713.74271731949739,14.199999809265137
-712.515752581241,20
-711.28902517110146,23.200000762939453
-710.06253504095184,20.799999237060547
-708.83628214267264,19.799999237060547
-707.610266428148,29.799999237060547
-706.384487849291,14.199999809265137
-705.15894635801124,15.399999618530273
-703.93364190623652,34.400001525878906
-702.70857444590911,17.799999237060547
-701.48374392898586,13.600000381469727
-700.25915030741635,25.600000381469727
-699.03479353318289,22.799999237060547
-697.81067355827872,20.399999618530273
-696.58679033470071,15.399999618530273
-695.36314381444936,37.400001525878906
-694.1397339495652,16.399999618530273
-692.91656069207056,13.199999809265137
-691.69362399401689,34
-690.47092380745926,19
-689.24846008447821,22.600000381469727
-688.02623277714338,17.600000381469727
-686.80424183756077,30
-685.58248721782911,13.800000190734863
-684.360968870069,8.8000001907348633
-683.13968674641546,34.599998474121094
-681.91864079900733,27.399999618530273
-680.69783097999425,16.399999618530273
-679.4772572415477,18.200000762939453
-678.25691953584283,23.799999237060547
-677.0368178150693,31.799999237060547
-675.81695203143136,22.799999237060547
-674.59732213714051,25.399999618530273
-673.37792808442282,20.799999237060547
-672.15876982551163,39.799999237060547
-670.9398473126621,11.399999618530273
-669.72116049812939,16.399999618530273
-668.50270933419051,34.400001525878906
-667.28449377312245,16.399999618530273
-666.0665137672313,7.8000001907348633
-664.84876926881952,33
-663.63126023020413,14.800000190734863
-662.413986603724,33.599998474121094
-661.19694834172151,12.399999618530273
-659.9801453965465,22.799999237060547
-658.76357772057054,26.600000381469727
-657.54724526617247,33.400001525878906
-656.33114798573843,32.599998474121094
-655.11528583168,19.799999237060547
-653.89965875640155,24.600000381469727
-652.68426671233283,25.399999618530273
-651.46910965191455,19.200000762939453
-650.25418752759469,9.3999996185302734
-649.03950029183216,13.600000381469727
-647.825047897104,26.600000381469727
-646.61083029589463,25.399999618530273
-645.39684744069928,18
-644.18309928402778,27.399999618530273
-642.96958577839359,39
-641.75630687633929,6.4000000953674316
-640.54326253040745,21.200000762939453
-639.33045269314425,37
-638.117877317125,25.600000381469727
-636.90553635492142,27.600000381469727
-635.69342975913059,32.599998474121094
-634.481557482357,23.799999237060547
-633.26991947720853,25.600000381469727
-632.05851569631523,19.200000762939453
-630.84734609231418,27.799999237060547
-629.63641061784983,16
-628.4257092255848,27
-627.21524186819988,26.600000381469727
-626.00500849836862,20.600000381469727
-624.79500906879366,40.799999237060547
-623.58524353217763,23.600000381469727
-622.37571184124863,32.200000762939453
-621.1664139487275,29
-619.95734980736415,13.800000190734863
-618.74851936991581,26
-617.539922589136,44.799999237060547
-616.33155941781479,7.4000000953674316
-615.12342980873473,19.200000762939453
-613.91553371470036,27.200000762939453
-612.70787108852346,20.200000762939453
-611.50044188302672,35.799999237060547
-610.29324605104739,18.799999237060547
-609.08628354543725,30.200000762939453
-607.87955431905175,17.200000762939453
-606.67305832475722,15.600000381469727
-605.46679551544912,49.799999237060547
-604.26076584400835,25.200000762939453
-603.05496926335218,18.200000762939453
-601.849405726387,30.200000762939453
-600.64407518604821,27
-599.438977595275,28.200000762939453
-598.234112907021,40.200000762939453
-597.02948107425073,29.799999237060547
-595.82508204993974,33.200000762939453
-594.62091578707441,35
-593.41698223864842,21
-592.21328135768454,37.599998474121094
-591.009813097191,20
-589.80657741020877,36
-588.60357424978247,36
-587.4008035689676,21.200000762939453
-586.19826532083425,46.400001525878906
-584.99595945845977,29
-583.793885934936,27.799999237060547
-582.5920447033659,20.799999237060547
-581.39043571686307,26.600000381469727
-580.18905892855764,19.200000762939453
-578.98791429158518,26
-577.78700175909034,38.599998474121094
-576.58632128423778,21.399999618530273
-575.38587282020308,45.200000762939453
-574.1856563201618,28
-572.98567173731681,27.200000762939453
-571.78591902487278,15.199999809265137
-570.58639813603986,34
-569.38710902406274,27.399999618530273
-568.18805164217156,47.799999237060547
-566.98922594362557,18.600000381469727
-565.790631881684,29.200000762939453
-564.59226940962253,22
-563.39413848073127,11.800000190734863
-562.19623904831133,35.599998474121094
-560.99857106566742,29.399999618530273
-559.80113448612792,26.600000381469727
-558.60392926301938,21.200000762939453
-557.40695534968654,36.599998474121094
-556.21021269949415,17.600000381469727
-555.0137012658015,30
-553.81742100199153,26.200000762939453
-552.62137186145628,33.200000762939453
-551.4255537975896,18.200000762939453
-550.22996676381626,8.6000003814697266
-549.03461071355377,46.400001525878906
-547.8394856002451,42
-546.64459137733138,20
-545.449927998272,36
-544.25549541654073,40
-543.06129358562066,27.200000762939453
-541.86732245900566,50.400001525878906
-540.67358199019873,23.200000762939453
-539.48007213271376,25.399999618530273
-538.28679284007922,29.399999618530273
-537.09374406584539,25.200000762939453
-535.900925763548,29.799999237060547
-534.70833788675736,32.599998474121094
-533.51598038904558,29.600000381469727
-532.32385322399932,28.200000762939453
-531.13195634520889,17.399999618530273
-529.94028970629006,30.799999237060547
-528.74885326085314,29.200000762939453
-527.55764696253573,32
-526.36667076497724,28.399999618530273
-525.17592462183165,22.200000762939453
-523.985408486762,40
-522.79512231344415,28.799999237060547
-521.60506605556839,17
-520.41523966682871,25
-519.22564310093912,31.399999618530273
-518.0362763116209,30.799999237060547
-516.84713925260257,38
-515.65823187763453,41.799999237060547
-514.46955414046715,24.200000762939453
-513.28110599486718,30.799999237060547
-512.09288739461954,41.200000762939453
-510.90489829350736,35.200000762939453
-509.71713864533194,20.600000381469727
-508.52960840390369,30.799999237060547
-507.3423075230512,31.399999618530273
-506.15523595660488,27
-504.96839365841697,36.599998474121094
-503.78178058233607,25.399999618530273
-502.59539668223624,27.600000381469727
-501.4092419119952,38
-500.223316225507,48.599998474121094
-499.0376195766712,36
-497.85215191940188,32.200000762939453
-496.666913207624,24.399999618530273
-495.48190339527719,32
-494.29712243630638,30.799999237060547
-493.11257028467116,28.600000381469727
-491.928246894342,27.799999237060547
-490.7441522193003,30.799999237060547
-489.56028621353471,47.400001525878906
-488.37664883105754,37.599998474121094
-487.19324002587746,32.200000762939453
-486.01005975202315,18.200000762939453
-484.8271079635324,47
-483.6443846144557,43.799999237060547
-482.46188965885085,27.799999237060547
-481.27962305079018,55.200000762939453
-480.09758474435512,50.200000762939453
-478.91577469364165,45
-477.73419285275304,32.200000762939453
-476.55283917580709,32.799999237060547
-475.37171361693436,38
-474.19081613026719,34
-473.010146669958,38.599998474121094
-471.82970519017181,52.200000762939453
-470.64949164507379,34.200000762939453
-469.46950598885633,43.799999237060547
-468.28974817570452,39.799999237060547
-467.1102181598344,45.599998474121094
-465.93091589545475,43
-464.75184133679977,36.799999237060547
-463.57299443810552,35.599998474121094
-462.39437515362624,44.599998474121094
-461.2159834376198,37.799999237060547
-460.03781924436043,31.799999237060547
-458.85988252813513,28.600000381469727
-457.68217324323632,48.400001525878906
-456.50469134396917,31.399999618530273
-455.32743678465886,33
-454.15040951962692,35.400001525878906
-452.97360950321672,49
-451.79703668977709,26.799999237060547
-450.62069103367321,45
-449.4445724892721,52.599998474121094
-448.26868101096989,41.599998474121094
-447.09301655315357,41.200000762939453
-445.9175790702302,47.400001525878906
-444.74236851661954,43
-443.56738484675407,48.400001525878906
-442.39262801506811,47.799999237060547
-441.21809797601236,28.799999237060547
-440.0437946840575,47.400001525878906
-438.86971809366878,37.200000762939453
-437.69586815933872,48
-436.52224483555256,42.599998474121094
-435.34884807682647,48.400001525878906
-434.17567783767481,11.399999618530273
-433.00273407262466,35.400001525878906
-431.83001673621948,41.400001525878906
-430.65752578300453,38
-429.4852611675542,51.599998474121094
-428.31322284443013,40
-427.14141076821943,40
-425.96982489351649,43.400001525878906
-424.79846517493388,35.799999237060547
-423.62733156708055,35.799999237060547
-422.45642402459453,55.799999237060547
-421.28574250211022,54
-420.1152869542766,44
-418.94505733575534,41.200000762939453
-417.77505360122632,51.400001525878906
-416.60527570536397,39.400001525878906
-415.43572360287,44.599998474121094
-414.26639724844608,40.200000762939453
-413.09729659681216,42.400001525878906
-411.92842160268992,67.4000015258789
-410.7597722208302,45.400001525878906
-409.59134840596926,41
-408.42315011287792,40.200000762939453
-407.2551772963252,44.400001525878906
-406.087429911091,30
-404.9199079119735,54.200000762939453
-403.75261125377619,53.200000762939453
-402.58553989131542,42.400001525878906
-401.41869377941293,26.200000762939453
-400.25207287291232,41
-399.08567712666627,44.200000762939453
-397.919506495522,52.400001525878906
-396.75356093436312,48.400001525878906
-395.58784039806596,46
-394.42234484151959,29.600000381469727
-393.25707421963307,51.799999237060547
-392.09202848732275,38.599998474121094
-390.92720759950862,52
-389.76261151112521,46.599998474121094
-388.59824017713072,60.599998474121094
-387.43409355247422,46.200000762939453
-386.27017159212846,41.799999237060547
-385.10647425107527,51.400001525878906
-383.94300148430193,43.400001525878906
-382.77975324681393,59.400001525878906
-381.616729493624,60
-380.453930179754,40.799999237060547
-379.29135526024038,27.200000762939453
-378.129004690134,39
-376.96687842448227,39.799999237060547
-375.80497641835791,41.400001525878906
-374.64329862683917,43.799999237060547
-373.4818450050152,31
-372.32061550798426,44.400001525878906
-371.15961009086277,45.799999237060547
-369.99882870877082,66
-368.83827131683756,43.400001525878906
-367.677937870214,44.599998474121094
-366.51782832404751,29.200000762939453
-365.3579426335109,50.200000762939453
-364.19828075377518,42.200000762939453
-363.03884264003136,50.599998474121094
-361.87962824747046,32.200000762939453
-360.7206375313126,44.200000762939453
-359.56187044677063,50.200000762939453
-358.403326949081,48.400001525878906
-357.24500699348027,47.200000762939453
-356.08691053522307,48
-354.92903752956954,49.400001525878906
-353.771387931798,40.400001525878906
-352.61396169719228,52
-351.45675878105067,39.400001525878906
-350.29977913867333,54.200000762939453
-349.14302272538407,56.400001525878906
-347.98648949651215,34.599998474121094
-346.83017940739046,55.200000762939453
-345.67409241337191,47.200000762939453
-344.51822846982031,44.599998474121094
-343.36258753210313,58.200000762939453
-342.20716955560965,59.200000762939453
-341.05197449572188,71.4000015258789
-339.89700230785638,55.400001525878906
-338.74225294741518,54
-337.58772636983667,51.400001525878906
-336.43342253054652,57.200000762939453
-335.27934138499768,46
-334.12548288865037,49
-332.97184699696481,57.200000762939453
-331.81843366542853,62.599998474121094
-330.66524284953266,40.599998474121094
-329.51227450476654,50.799999237060547
-328.35952858665769,63.599998474121094
-327.20700505071909,54
-326.05470385248555,70.4000015258789
-324.90262494750459,84.5999984741211
-323.75076829132558,55.599998474121094
-322.59913383951789,65.199996948242188
-321.44772154765633,49
-320.29653137132846,48.599998474121094
-319.14556326613092,50.599998474121094
-317.99481718767311,61.799999237060547
-316.84429309157531,64.199996948242188
-315.69399093346874,45.799999237060547
-314.54391066899007,48.799999237060547
-313.39405225379596,59
-312.24441564354129,58
-311.09500079390455,63.200000762939453
-309.94580766056788,56.200000762939453
-308.79683619922253,54
-307.64808636558337,65.199996948242188
-306.49955811535619,66.4000015258789
-305.35125140426862,61.599998474121094
-304.203166188061,59.400001525878906
-303.05530242247733,73.199996948242188
-301.90766006327794,47.200000762939453
-300.76023906623413,63.400001525878906
-299.61303938712081,45.200000762939453
-298.46606098173288,59.599998474121094
-297.31930380586527,71.5999984741211
-296.17276781533837,57.599998474121094
-295.02645296596893,53.799999237060547
-293.88035921359551,64
-292.73448651404942,73.5999984741211
-291.58883482319834,46.200000762939453
-290.44340409690449,74.5999984741211
-289.29819429103554,56.200000762939453
-288.15320536148647,64.5999984741211
-287.0084372641486,58.200000762939453
-285.86388995493689,63.200000762939453
-284.7195633897627,53.799999237060547
-283.57545752455371,56.799999237060547
-282.431572315254,75.199996948242188
-281.28790771781496,85.800003051757813
-280.1444636881879,78.199996948242188
-279.00124018235692,59
-277.8582371562934,52.799999237060547
-276.71545456599597,57.400001525878906
-275.57289236746692,63.400001525878906
-274.43055051671945,51.400001525878906
-273.28842896977221,82
-272.14652768267115,58.599998474121094
-271.00484661145128,54.200000762939453
-269.86338571217493,61.400001525878906
-268.72214494090622,53.400001525878906
-267.581124253722,56.599998474121094
-266.44032360671372,66.4000015258789
-265.29974295597458,60.200000762939453
-264.159382257616,63.799999237060547
-263.01924146776037,71.199996948242188
-261.87932054252815,68
-260.73961943807444,63.200000762939453
-259.60013811053796,76
-258.46087651608468,77.800003051757813
-257.32183461088971,60.799999237060547
-256.18301235113358,89.199996948242188
-255.04440969300595,50.599998474121094
-253.90602659271462,64
-252.76786300647473,64.800003051757813
-251.62991889051045,71.800003051757813
-250.49219420105146,77.199996948242188
-249.35468889435288,69.199996948242188
-248.217402926668,68.5999984741211
-247.08033625425924,72.800003051757813
-245.94348883341445,87.800003051757813
-244.80686062040877,68.5999984741211
-243.67045157154826,81.800003051757813
-242.53426164314442,84
-241.39829079150877,98.199996948242188
-240.26253897297829,81.199996948242188
-239.12700614388814,75.199996948242188
-237.99169226059348,72
-236.85659727945676,74.4000015258789
-235.72172115684771,69.800003051757813
-234.58706384914331,81.800003051757813
-233.4526253127442,97.800003051757813
-232.31840550405468,84.199996948242188
-231.18440437947902,64.4000015258789
-230.05062189545242,89.5999984741211
-228.91705800840282,59.400001525878906
-227.78371267477996,87.5999984741211
-226.65058585103725,54.200000762939453
-225.51767749363898,84.800003051757813
-224.38498755906403,85.800003051757813
-223.2525160037967,73.199996948242188
-222.1202627843395,78.5999984741211
-220.98822785719858,69.4000015258789
-219.85641117888918,85.4000015258789
-218.7248127059429,83.4000015258789
-217.59343239489681,75.800003051757813
-216.46227020230072,77.199996948242188
-215.3313260847226,74.800003051757813
-214.20059999872137,94.5999984741211
-213.07009190087956,81.4000015258789
-211.9398017477979,66.4000015258789
-210.80972949606621,79
-209.67987510230523,79.5999984741211
-208.5502385231357,86.199996948242188
-207.42081971518564,77.199996948242188
-206.29161863510308,83.4000015258789
-205.16263523954149,102
-204.03386948516163,104.19999694824219
-202.90532132864428,73.800003051757813
-201.77699072666474,101.80000305175781
-200.64887763592742,88.199996948242188
-199.52098201313311,86
-198.39330381500076,90.800003051757813
-197.26584299825117,95.5999984741211
-196.13859951962695,100.40000152587891
-195.01157333587253,97.199996948242188
-193.88476440374143,110.59999847412109
-192.75817268001083,112.40000152587891
-191.63179812144881,116.40000152587891
-190.50564068485255,106.59999847412109
-189.3797003270156,112
-188.25397700474423,130.80000305175781
-187.12847067486291,129.39999389648438
-186.00318129420339,113.80000305175781
-184.87810881960104,173.39999389648438
-183.75325320790944,122.19999694824219
-182.62861441598398,152.80000305175781
-181.50419240070187,137
-180.37998711894033,156.39999389648438
-179.25599852759296,167
-178.13222658356062,164.39999389648438
-177.00867124376236,165.80000305175781
-175.88533246510815,206.60000610351563
-174.76221020454068,194.60000610351563
-173.63930441900084,159.60000610351563
-172.51661506544224,157
-171.39414210082759,169.39999389648438
-170.27188548212871,166.19999694824219
-169.14984516633558,182
-168.02802111043638,185.39999389648438
-166.90641327144112,170.80000305175781
-165.78502160636344,211.39999389648438
-164.66384607223154,210.60000610351563
-163.54288662607541,207.60000610351563
-162.4221432249451,172.39999389648438
-161.30161582589426,221.60000610351563
-160.18130438598928,226.80000305175781
-159.06120886230929,211.19999694824219
-157.94132921194432,185.39999389648438
-156.82166539198624,190.60000610351563
-155.70221735953965,209.60000610351563
-154.58298507173095,185.19999694824219
-153.46396848568111,182.60000610351563
-152.34516755853474,188
-151.22658224743282,201.39999389648438
-150.10821250953813,169.80000305175781
-148.99005830202077,206.39999389648438
-147.87211958205626,189.80000305175781
-146.75439630683832,216.39999389648438
-145.63688843355885,205.80000305175781
-144.51959591943705,248.19999694824219
-143.40251872168847,217.80000305175781
-142.28565679753956,242
-141.16901010423499,246
-140.05257859902849,241.39999389648438
-138.93636223917383,262.60000610351563
-137.82036098194294,240.19999694824219
-136.70457478462595,278.79998779296875
-135.58900360449843,242.80000305175781
-134.47364739887416,241.19999694824219
-133.35850612506329,248.60000610351563
-132.24357974038321,254.80000305175781
-131.12886820217136,258
-130.01437146776334,220.19999694824219
-128.90008949451476,233
-127.78602223979033,214.80000305175781
-126.67216966095839,226.39999389648438
-125.55853171540366,214.80000305175781
-124.44510836051813,195.60000610351563
-123.33189955371017,209.60000610351563
-122.2189052523845,201.39999389648438
-121.10612541397313,190
-119.9935599959008,195.19999694824219
-118.88120895561769,196
-117.76907225057403,197
-116.65714983823818,187
-115.54544167607855,231.80000305175781
-114.43394772158354,212.60000610351563
-113.32266793224335,222.60000610351563
-112.21160226556458,226.19999694824219
-111.10075067906291,255
-109.99011313026131,218.39999389648438
-108.87968957669545,226.60000610351563
-107.76947997590833,255.39999389648438
-106.65948428545926,274.20001220703125
-105.54970246290759,274.60000610351563
-104.44013446582903,306.39999389648438
-103.33078025181567,346
-102.22163977845048,386
-101.11271300335284,492.39999389648438
-100.00399988412755,627.4000244140625
-98.8955003784049,674.4000244140625
-97.787214443818812,678.4000244140625
-96.679142038015925,596.4000244140625
-95.571283118651991,500.79998779296875
-94.46363764339003,456.39999389648438
-93.356205569909434,488.20001220703125
-92.248986855895055,571.5999755859375
-91.141981459042654,595.4000244140625
-90.035189337055272,581.20001220703125
-88.928610447654137,489.39999389648438
-87.8222447485623,453.79998779296875
-86.716092197515536,416.79998779296875
-85.610152752264185,447
-84.504426370558576,461.39999389648438
-83.3989130101636,463.39999389648438
-82.29361262886232,419
-81.188525184439641,399.20001220703125
-80.083650634691367,404.79998779296875
-78.978988937416943,456.79998779296875
-77.8745400504431,441.60000610351563
-76.7703039315893,445.39999389648438
-75.666280538693172,512.5999755859375
-74.56246982959965,501.60000610351563
-73.45887176217002,483.39999389648438
-72.355486294265575,512.5999755859375
-71.2523133837658,528
-70.149352988557439,503.20001220703125
-69.046605066534539,532
-67.944069575602043,546.79998779296875
-66.84174647367945,616.20001220703125
-65.739635718693535,731.20001220703125
-64.63773726857471,916
-63.5360510812734,1254.4000244140625
-62.434577114750937,1868.800048828125
-61.3333153269632,2647.199951171875
-60.232265675895178,3264.39990234375
-59.131428119522752,3461.39990234375
-58.030802615854554,3264
-56.930389122886481,2872
-55.830187598636257,2612
-54.730198001132521,2669.800048828125
-53.630420288413006,3027.39990234375
-52.530854418515446,4462
-51.431500349504859,7343.60009765625
-50.332358039440805,9229.599609375
-49.233427446402857,9440
-48.134708528470583,8212.7998046875
-47.036201243741743,5607.2001953125
-45.937905550323194,4474.7998046875
-44.839821406334522,3957.60009765625
-43.74194876988804,3227.60009765625
-42.64428759913244,2148.800048828125
-41.5468378522055,1668
-40.449599487265004,1599.5999755859375
-39.352572462472381,1669.4000244140625
-38.255756736005424,1631.4000244140625
-37.159152266047386,1478.800048828125
-36.062759010790614,1275.5999755859375
-34.966576928443828,1096.5999755859375
-33.8706059772212,1203.5999755859375
-32.774846115338732,2093.199951171875
-31.679297301039696,4301.39990234375
-30.583959492563736,6566.7998046875
-29.488832648166863,7601.2001953125
-28.393916726110547,7201.2001953125
-27.299211684672628,6276.7998046875
-26.204717482129126,5615.7998046875
-25.110434076774254,5071
-24.016361426916774,4654.7998046875
-22.922499490865448,2937.39990234375
-21.828848226945411,1441.800048828125
-20.735407593489072,1048.4000244140625
-19.642177548834297,881.20001220703125
-18.549158051340783,820.4000244140625
-17.456349059368222,785.4000244140625
-16.363750531281767,775.5999755859375
-15.271362425470215,791.79998779296875
-14.179184700326005,765.4000244140625
-13.087217314247027,802
-11.995460225642091,790
-10.903913392940012,805.5999755859375
-9.8125767745696066,895.79998779296875
-8.7214503289651475,903.5999755859375
-7.6305340145827358,952.5999755859375
-6.5398277898821107,961.20001220703125
-5.4493316133357439,889.79998779296875
-4.3590454434179264,648.5999755859375
-3.26896923861932,398.60000610351563
-2.1791029574433196,767
-1.0894465583987767,716
-3.637978807091713E-12,669
1.0892367592168739,1257.800048828125
2.1782637607157085,513
3.2670810459494533,683.79998779296875
4.3556886563619628,960.5999755859375
5.4440866333861777,1069.5999755859375
6.5322750184368488,1058.199951171875
7.6202538529305457,992
8.7080231782692863,969.5999755859375
9.7955830358478124,896.4000244140625
10.882933467048133,896.79998779296875
11.970074513241343,922
13.0570062157949,900
14.143728616063527,949.5999755859375
15.230241755389216,951.79998779296875
16.316545675103043,903.79998779296875
17.402640416532449,1012.4000244140625
18.488526020995778,1084.5999755859375
19.574202529791364,1281
20.659669984221182,1725.199951171875
21.744928425567196,3100
22.82997789510955,5481.60009765625
23.914818434106564,6681
24.99945008382565,7499.39990234375
26.083872885503297,8475.7998046875
27.168086880381452,9324.2001953125
28.252092109691148,10883.7998046875
29.33588861464159,10674.599609375
30.419476436449258,7766.7998046875
31.502855616305169,4371.2001953125
32.586026195402155,2141.800048828125
33.668988214920319,1720.4000244140625
34.751741716028846,1740.4000244140625
35.834286739884192,2150
36.916623327637353,2492
37.998751520428414,2724
39.080671359392,2676
40.162382885640909,2668.800048828125
41.243886140291579,3054.800048828125
42.325181164447713,4443
43.406267999200281,6226.39990234375
44.4871466856257,7452.39990234375
45.5678172648004,8609.599609375
46.648279777786229,12028.2001953125
47.72853426563961,16154
48.8085807694024,17870.80078125
49.888419330107354,17084.400390625
50.968049988779967,12166
52.047472786436629,7243.2001953125
53.126687764075541,5539
54.205694962698544,5264.2001953125
55.284494423289289,5438
56.363086186827786,6079.7998046875
57.44147029427404,6976.7998046875
58.519646786589874,7413.2001953125
59.597615704718919,6904.39990234375
60.67537708960117,5528
61.752930982163889,3908.60009765625
62.83027742332888,2561.60009765625
63.90741645399612,1915.800048828125
64.984348115074681,1522.4000244140625
66.061072447448169,1342.800048828125
67.13758949199655,1154
68.213899289597975,1161.5999755859375
69.29000188109967,1180
70.36589730736705,1175.4000244140625
71.441585609234608,1204.800048828125
72.517066827535018,1170
73.592341003088222,1162
74.667408176715981,1164.199951171875
75.742268389207311,1130.4000244140625
76.816921681369422,1105.199951171875
77.891368093980418,1085.800048828125
78.965607667816585,1064.800048828125
80.039640443639655,1094.5999755859375
81.113466462209544,1035.5999755859375
82.187085764271615,1127
83.260498390560315,1200.5999755859375
84.333704381804637,1213.4000244140625
85.40670377871902,1204
86.479496622014267,1187.4000244140625
87.552082952388446,1307
88.624462810528712,1586
89.6966362371113,1725.199951171875
90.76860327281247,1774.5999755859375
91.840363958286616,1634
92.911918334189977,1384
93.983266441158776,1359
95.054408319829236,1580.199951171875
96.12534401081939,2010.800048828125
97.19607355474,2240.199951171875
98.2665969922,2216.39990234375
99.336914363786491,1983.5999755859375
100.40702571009024,1530.4000244140625
101.47693107168197,1267.4000244140625
102.54663048912334,1028
103.61612400297781,953.79998779296875
104.68541165378701,868
105.75449348208713,831.5999755859375
106.82336952840706,766.4000244140625
107.89203983326297,810.4000244140625
108.96050443715831,746.20001220703125
110.02876338060378,772.20001220703125
111.09681670407736,724.4000244140625
112.16466444806247,709.20001220703125
113.23230665302981,696.79998779296875
114.2997433594428,680.20001220703125
115.36697460774849,695
116.43400043838665,673.20001220703125
117.50082089179705,679.79998779296875
118.56743600839945,655.79998779296875
119.63384582860272,691.4000244140625
120.70005039281386,659.79998779296875
121.76604974143083,662.79998779296875
122.83184391483519,708.20001220703125
123.89743295340486,729
124.96281689750322,783.5999755859375
126.02799578748636,788.20001220703125
127.09296966370857,850.5999755859375
128.15773856649867,882.4000244140625
129.22230253619455,908.4000244140625
130.28666161311048,983.4000244140625
131.35081583755345,955.4000244140625
132.414765249825,1041.4000244140625
133.47850989022481,1068
134.54204979901988,1056.800048828125
135.60538501649535,1021
136.66851558290364,1103
137.73144153850444,1127.4000244140625
138.79416292353926,1132
139.85667977824414,1116
140.91899214284422,1120
141.9811000575537,1095.800048828125
143.0430035625759,1104.4000244140625
144.10470269811231,1066.5999755859375
145.16619750435348,969
146.22748802146998,963.5999755859375
147.28857428963602,916.4000244140625
148.3494563490076,858
149.41013423973891,859.5999755859375
150.47060800196778,898.20001220703125
151.53087767582292,904.20001220703125
152.59094330143125,903.4000244140625
153.65080491890512,963.5999755859375
154.71046256834779,1004.7999877929688
155.76991628984433,1039.199951171875
156.82916612349436,1060.199951171875
157.88821210936294,1087
158.94705428751695,1129.4000244140625
160.00569269801963,1161.199951171875
161.06412738090876,1203.5999755859375
162.12235837622939,1217.199951171875
163.18038572400837,1206.199951171875
164.23820946425803,1148.4000244140625
165.29582963700341,1104.800048828125
166.35324628222952,1036.800048828125
167.41045943993777,968.4000244140625
168.4674691501059,944.5999755859375
169.52427545270439,970
170.58087838770371,983.5999755859375
171.63727799505432,940
172.6934743146976,1055.4000244140625
173.74946738657491,1058.199951171875
174.80525725060761,1112.199951171875
175.86084394671525,1071.199951171875
176.91622751480463,1009
177.97140799477529,930.5999755859375
179.02638542651403,897
180.08115984989854,888.5999755859375
181.13573130480836,858.5999755859375
182.1900998310939,866.20001220703125
183.24426546861469,836.20001220703125
184.29822825721203,799
185.35198823671635,769.79998779296875
186.40554544695078,729.20001220703125
187.45889992773846,682.4000244140625
188.51205171887523,660.20001220703125
189.5650008601624,595.5999755859375
190.61774739138855,574.79998779296875
191.67029135232588,549.79998779296875
192.72263278274659,524
193.77477172241379,485.79998779296875
194.82670821106694,481.39999389648438
195.87844228846188,490
196.92997399431806,479.60000610351563
197.98130336836039,467.79998779296875
199.03243045030285,431.79998779296875
200.083355279854,452
201.13407789669873,421.60000610351563
202.18459834053465,412.79998779296875
203.23491665102665,398.60000610351563
204.28503286785053,399
205.33494703066026,407.20001220703125
206.38465917910617,422.20001220703125
207.43416935282403,417.79998779296875
208.48347759144417,420.20001220703125
209.53258393459691,390
210.58148842188348,421.60000610351563
211.63019109291054,402.60000610351563
212.67869198727021,406.20001220703125
213.726991144551,373.79998779296875
214.775088604325,415
215.82298440615341,420.79998779296875
216.8706785896029,409
217.91817119421466,406
218.96546225952443,413.39999389648438
220.01255182506975,425
221.05943993036635,456
222.10612661491905,371.39999389648438
223.15261191823993,421
224.19889587981743,424.20001220703125
225.24497853913635,393
226.29085993566514,387.60000610351563
227.33654010887221,387.60000610351563
228.38201909822055,377.39999389648438
229.42729694314221,382.79998779296875
230.47237368309288,398.60000610351563
231.51724935748462,370.60000610351563
232.56192400574764,364.39999389648438
233.60639766728673,354.39999389648438
234.65067038150482,358.20001220703125
235.69474218779396,343.79998779296875
236.73861312553527,357.60000610351563
237.78228323410804,324.20001220703125
238.82575255286974,349
239.86902112117787,331.20001220703125
240.9120889783826,374.20001220703125
241.95495616381777,345.20001220703125
242.99762271681357,377
244.04008867668745,345
245.08235408274959,354.79998779296875
246.1244189743029,356.20001220703125
247.16628339063755,349.79998779296875
248.20794737103279,349.60000610351563
249.24941095476788,343.20001220703125
250.29067418110571,366.79998779296875
251.33173708930008,333.79998779296875
252.37259971859567,362.79998779296875
253.41326210823536,372.79998779296875
254.45372429744384,348.79998779296875
255.49398632544035,338.20001220703125
256.53404823143683,334.60000610351563
257.57391005463069,359
258.61357183421751,373.79998779296875
259.65303360938196,348.39999389648438
260.69229541928871,345.39999389648438
261.73135730310787,369
262.77021929999864,365.20001220703125
263.80888144910386,352
264.84734378955909,347.60000610351563
265.88560636049988,357.20001220703125
266.92366920103996,361.39999389648438
267.9615323502876,342.20001220703125
268.99919584735289,328.60000610351563
270.03665973132047,350.20001220703125
271.07392404127677,363.60000610351563
272.1109888162955,389.79998779296875
273.14785409544129,372.60000610351563
274.18451991776965,363.39999389648438
275.22098632233428,355
276.25725334816525,378.79998779296875
277.29332103429442,379.60000610351563
278.32918941974458,375.20001220703125
279.36485854352395,375.20001220703125
280.40032844463531,368.20001220703125
281.43559916207232,360.60000610351563
282.4706707348214,395.60000610351563
283.50554320185074,359.20001220703125
284.540216602134,374.79998779296875
285.57469097462854,363.79998779296875
286.60896635827521,411.39999389648438
287.6430427920186,397.79998779296875
288.67692031479055,377
289.71059896550651,376.20001220703125
290.74407878308375,418.39999389648438
291.777359806425,412.79998779296875
292.81044207441846,420.60000610351563
293.84332562596137,452
294.87601049991827,465.60000610351563
295.90849673516095,472.39999389648438
296.94078437055396,463.60000610351563
297.97287344493816,476.79998779296875
299.00476399715808,431.60000610351563
300.03645606604368,437.79998779296875
301.06794969041584,419.60000610351563
302.09924490909361,393.20001220703125
303.13034176088149,426.60000610351563
304.16124028456943,420.20001220703125
305.1919405189492,404.79998779296875
306.222442502798,420.79998779296875
307.25274627488216,430
308.2828518739625,441.79998779296875
309.31275933879624,441.60000610351563
310.34246870811512,470.79998779296875
311.37198002066361,461.60000610351563
312.40129331515891,438.79998779296875
313.43040863031638,456
314.45932600484593,427.79998779296875
315.48804547744476,408.20001220703125
316.51656708679729,404.79998779296875
317.54489087158618,386.20001220703125
318.57301687048675,407.60000610351563
319.60094512215619,398
320.62867566524437,400.79998779296875
321.65620853840483,393
322.68354378026197,407.79998779296875
323.71068142945296,385.39999389648438
324.73762152458949,372.60000610351563
325.76436410428141,387.20001220703125
326.79090920712588,391.79998779296875
327.81725687171638,388
328.84340713663732,366.20001220703125
329.86936004045674,377.39999389648438
330.8951156217463,398
331.92067391905039,355.39999389648438
332.9460349709243,371.39999389648438
333.97119881590334,348.79998779296875
334.99616549251732,383
336.02093503928518,382
337.04550749471673,407.60000610351563
338.06988289731453,366
339.09406128557566,363.79998779296875
340.11804269798085,350.39999389648438
341.14182717300719,370.60000610351563
342.16541474912265,381.39999389648438
343.18880546478249,385.39999389648438
344.21199935844015,391.39999389648438
345.23499646853088,367
346.25779683349174,392.60000610351563
347.2804004917416,395.79998779296875
348.30280748169571,352.79998779296875
349.3250178417602,404
350.34703161032849,399
351.36884882579034,371
352.39046952652461,383.60000610351563
353.41189375090107,376.20001220703125
354.43312153727675,392.60000610351563
355.45415292401049,386.20001220703125
356.47498794944113,385.79998779296875
357.49562665190388,388.60000610351563
358.51606906973029,378.39999389648438
359.53631524122466,385.79998779296875
360.55636520471126,388.79998779296875
361.576218998478,373.39999389648438
362.59587666081825,399.79998779296875
363.6153382300181,435.20001220703125
364.63460374434362,405.20001220703125
365.65367324206454,425.20001220703125
366.67254676143239,468.39999389648438
367.69122434069686,447
368.70970601810041,466.20001220703125
369.7279918318618,392.60000610351563
370.74608182021075,428.60000610351563
371.7639760213533,393.20001220703125
372.78167447349733,433.39999389648438
373.79917721483071,385.20001220703125
374.81648428354674,403.60000610351563
375.8335957178133,400.39999389648438
376.85051155580732,410
377.86723183568211,395.39999389648438
378.88375659558915,391.39999389648438
379.90008587367265,423
380.91621970806045,427.20001220703125
381.932158136884,386
382.94790119825484,396
383.96344893028072,396.39999389648438
384.97880137105676,399.79998779296875
385.99395855867624,400.39999389648438
387.0089205312197,393.60000610351563
388.02368732675495,418.60000610351563
389.03825898334981,423.60000610351563
390.05263553905752,396.60000610351563
391.06681703192226,399
392.08080349998454,419
393.09459498126671,403.79998779296875
394.10819151379292,395
395.12159313558004,412
396.13479988461768,413.39999389648438
397.14781179890815,391.79998779296875
398.16062891643014,415.39999389648438
399.17325127516779,414.39999389648438
400.18567891308157,423.20001220703125
401.19791186813563,418.79998779296875
402.20995017827954,422.79998779296875
403.22179388145014,426.60000610351563
404.23344301558427,432.60000610351563
405.24489761860423,423.79998779296875
406.256157728425,445.20001220703125
407.26722338295986,416.79998779296875
408.27809462009827,402.60000610351563
409.28877147773528,406.60000610351563
410.29925399374588,435.79998779296875
411.30954220601052,417
412.31963615238783,433.60000610351563
413.3295358707328,442.79998779296875
414.33924139889314,405
415.348752774702,419.79998779296875
416.35807003599439,456.39999389648438
417.36719322058889,437.60000610351563
418.3761223662932,395.60000610351563
419.38485751091685,435.20001220703125
420.39339869224932,430.60000610351563
421.4017459480765,430.20001220703125
422.4098993161806,414.79998779296875
423.41785883432567,431.39999389648438
424.42562454027211,441.20001220703125
425.43319647177304,443.79998779296875
426.44057466656886,422.39999389648438
427.44775916239269,448.60000610351563
428.45474999697581,417.39999389648438
429.46154720802588,444.20001220703125
430.46815083326146,461
431.474560910372,452.20001220703125
432.48077747705611,433.79998779296875
433.48680057099773,482.20001220703125
434.4926302298627,441.20001220703125
435.49826649132046,444.60000610351563
436.50370939302593,453.79998779296875
437.50895897263217,483.20001220703125
438.5140152677759,471.79998779296875
439.51887831608292,421.20001220703125
440.52354815518265,434.79998779296875
441.52802482268817,419.39999389648438
442.532308356198,459.20001220703125
443.53639879331604,459.60000610351563
444.54029617162814,435.60000610351563
445.54400052871461,466
446.54751190214483,462.39999389648438
447.55083032947732,472.79998779296875
448.553955848276,438.60000610351563
449.55688849607577,448.79998779296875
450.55962831042052,457.39999389648438
451.56217532883238,476.39999389648438
452.56452958883892,437.39999389648438
453.56669112794589,450.60000610351563
454.56865998365174,447.79998779296875
455.57043619345859,468.60000610351563
456.57201979484853,421.20001220703125
457.57341082529638,484.39999389648438
458.57460932227514,441.79998779296875
459.57561532323962,490
460.57642886564281,474.39999389648438
461.57704998692861,469
462.57747872453183,453.39999389648438
463.57771511587816,474
464.57775919838059,482.79998779296875
465.5776110094539,471.20001220703125
466.57727058649289,480
467.57673796689414,488.60000610351563
468.5760131880379,459.79998779296875
469.57509628729895,472.39999389648438
470.57398730204477,486.79998779296875
471.57268626963196,523.79998779296875
472.57119322740982,502.39999389648438
473.56950821272039,494.79998779296875
474.56763126289479,514.4000244140625
475.56556241525323,497.79998779296875
476.56330170711954,471
477.5608491757921,482
478.55820485857475,467.60000610351563
479.55536879275314,477.60000610351563
480.55234101561109,472.79998779296875
481.54912156442151,481
482.54571047644822,495.60000610351563
483.54210778894412,468.79998779296875
484.5383135391603,496.39999389648438
485.53432776433874,496
486.53015050170507,504.60000610351563
487.52578178848125,482.20001220703125
488.521221661882,492.60000610351563
489.51647015911294,497.39999389648438
490.511527317376,498.79998779296875
491.50639317384957,500.79998779296875
492.50106776571556,481.20001220703125
493.49555113015049,481.20001220703125
494.48984330431631,499
495.48394432536406,501.20001220703125
496.477854230443,487
497.47157305668588,501.39999389648438
498.46510084122747,500
499.45843762119148,488.60000610351563
500.45158343368166,474.20001220703125
501.44453831580358,503.79998779296875
502.43730230465735,481.20001220703125
503.4298754373267,507.60000610351563
504.42225775089173,492.60000610351563
505.41444928242527,489
506.40645006898194,486.79998779296875
507.39826014762366,481.39999389648438
508.38987955538869,487.39999389648438
509.38130832932075,507.60000610351563
510.3725465064399,495.60000610351563
511.36359412377169,508.39999389648438
512.35445121832345,499.20001220703125
513.345117827108,516.79998779296875
514.33559398710713,505.60000610351563
515.32587973531554,500.39999389648438
516.31597510870961,497.39999389648438
517.305880144253,521.5999755859375
518.29559487891856,535.79998779296875
519.2851193496499,496
520.27445359339254,514.79998779296875
521.2635976470865,503.39999389648438
522.25255154765728,495.20001220703125
523.24131533202308,538.79998779296875
524.22988903709665,534.20001220703125
525.21827269978348,489
526.20646635697267,511.79998779296875
527.19447004554968,505.39999389648438
528.18228380239634,498.39999389648438
529.16990766437993,545
530.15734166836046,511
531.14458585119428,484.39999389648438
532.13164024971957,543.20001220703125
533.11850490077813,541
534.1051798411936,520.20001220703125
535.09166510778778,520
536.0779607373679,517.79998779296875
537.06406676674123,499.39999389648438
538.04998323269865,533.79998779296875
539.03571017202739,544.79998779296875
540.02124762150379,528.5999755859375
541.00659561790053,501
541.99175419797393,517
542.97672339848032,533
543.96150325615963,520.20001220703125
544.94609380775364,539.4000244140625
545.93049508998593,527
546.91470713957824,527.5999755859375
547.89872999324143,529.5999755859375
548.88256368767543,529.4000244140625
549.86620825957834,524.20001220703125
550.84966374563555,527.20001220703125
551.83293018252334,549.79998779296875
552.81600760691072,526
553.79889605546123,543.79998779296875
554.78159556482933,529.4000244140625
555.76410617165857,557.4000244140625
556.74642791258339,571.20001220703125
557.72856082423277,549.79998779296875
558.71050494323026,552.20001220703125
559.692260306183,548.79998779296875
560.67382694969274,558.79998779296875
561.65520491036477,553.4000244140625
562.63639422477536,545
563.617394929508,543.20001220703125
564.59820706113169,554.20001220703125
565.5788306562099,562.5999755859375
566.55926575129524,569.79998779296875
567.53951238293848,580.4000244140625
568.51957058766675,535.4000244140625
569.49944040201626,564
570.47912186250869,561.4000244140625
571.45861500565115,561.4000244140625
572.43791986795441,575
573.417036485911,563.20001220703125
574.3959648960099,567.4000244140625
575.37470513472908,559.79998779296875
576.35325723854476,581.79998779296875
577.3316212439131,588
578.309797187294,556
579.28778510513439,607.79998779296875
580.26558503387241,569.4000244140625
581.24319700993874,552.5999755859375
582.22062106975318,566
583.1978572497319,565.20001220703125
584.17490558627833,585
585.15176611579591,560.20001220703125
586.12843887466624,566.79998779296875
587.1049238992764,587.79998779296875
588.08122122599343,567
589.05733089119167,577.5999755859375
590.03325293122,562
591.00898738242722,578.5999755859375
591.98453428115681,572.20001220703125
592.95989366373578,535.20001220703125
593.93506556649481,562.4000244140625
594.91005002574457,582.4000244140625
595.88484707779207,561
596.85945675894072,591.5999755859375
597.83387910547935,593.20001220703125
598.808114153695,571.4000244140625
599.78216193985281,585
600.7560225002253,594
601.729695871074,590.20001220703125
602.70318208864228,609.79998779296875
603.67648118917714,581.79998779296875
604.64959320891285,571.5999755859375
605.62251818407458,587.20001220703125
606.59525615087659,593
607.56780714553315,558.20001220703125
608.54017120424214,604
609.51234836320145,596
610.48433865859079,588.5999755859375
611.45614212658984,584.20001220703125
612.42775880336558,562.20001220703125
613.39918872508315,558.79998779296875
614.37043192788951,586
615.34148844793526,607.5999755859375
616.31235832134917,594.20001220703125
617.28304158426727,595
618.253538272802,595.5999755859375
619.2238484230711,590.4000244140625
620.19397207117981,592
621.16390925321321,604.79998779296875
622.13366000527276,586
623.103224363429,589.5999755859375
624.07260236375441,578
625.04179404231763,639.4000244140625
626.01079943516561,598.4000244140625
626.97961857835253,571
627.94825150791621,575
628.91669825988356,613.4000244140625
629.8849588702833,591.79998779296875
630.85303337512414,588.5999755859375
631.8209218104148,590.5999755859375
632.7886242121549,620.4000244140625
633.75614061633678,625.4000244140625
634.72347105893823,644.79998779296875
635.69061557593523,604.4000244140625
636.65757420329646,601.5999755859375
637.6243469769779,586.20001220703125
638.59093393293,631.5999755859375
639.55733510709615,596.79998779296875
640.5235505354085,616.79998779296875
641.48958025379216,617.5999755859375
642.45542429816669,590.20001220703125
643.4210827044426,619.5999755859375
644.38655550851945,602.20001220703125
645.351842746295,603.5999755859375
646.31694445364883,626.5999755859375
647.28186066646231,642
648.24659142060591,597
649.21113675193737,612.4000244140625
650.17549669631444,653.20001220703125
651.13967128958211,615.5999755859375
652.10366056757266,601.5999755859375
653.067464566122,614.20001220703125
654.03108332104784,612.4000244140625
654.99451686816428,623.20001220703125
655.95776524327266,602.20001220703125
656.920828482178,623.79998779296875
657.88370662066518,586.4000244140625
658.84639969451382,641.79998779296875
659.80890773950159,630
660.77123079139164,601.5999755859375
661.733368885938,614.79998779296875
662.69532205889118,608.5999755859375
663.65709034599786,631.79998779296875
664.61867378298484,625.5999755859375
665.58007240558072,629.20001220703125
666.54128624949954,622.20001220703125
667.50231535045532,645.79998779296875
668.46315974414392,613
669.42381946626119,628.79998779296875
670.38429455249025,617.20001220703125
671.34458503851238,620.4000244140625
672.30469095999615,637.79998779296875
673.2646123525974,638.79998779296875
674.224349251972,634.4000244140625
675.18390169377017,633.79998779296875
676.14326971362243,615
677.10245334716274,642.79998779296875
678.0614526300069,600.20001220703125
679.02026759777618,619.4000244140625
679.97889828607,618.79998779296875
680.93734473048789,622.5999755859375
681.89560696662011,623
682.85368503004611,632.20001220703125
683.81157895634169,636.20001220703125
684.76928878106992,617
