-777.87311982425126,10
-776.63374739947358,24
-775.39461482227671,27.600000381469727
-774.15572204389719,7.1999998092651367
-772.91706901559337,22.200000762939453
-771.67865568863454,22.799999237060547
-770.44048201429,12.399999618530273
-769.20254794384346,27.200000762939453
-767.96485342860433,16.600000381469727
-766.7273984198855,7.4000000953674316
-765.49018286900719,17.399999618530273
-764.25320672730777,17.600000381469727
-763.01646994613657,26.600000381469727
-761.77997247685744,5.5999999046325684
-760.5437142708488,21
-759.307695279489,27.200000762939453
-758.07191545417118,15.600000381469727
-756.83637474631723,25.799999237060547
-755.601073107342,19.600000381469727
-754.36601048868215,26.200000762939453
-753.13118684178153,15.600000381469727
-751.89660211810587,31.799999237060547
-750.66225626912092,5.1999998092651367
-749.42814924630693,21.600000381469727
-748.19428100116238,33
-746.960651485193,15
-745.72726064991912,21.200000762939453
-744.49410844686827,28.200000762939453
-743.26119482758622,18
-742.02851974362966,16
-740.79608314656616,13.399999618530273
-739.5638849879706,23.200000762939453
-738.331925219436,20.799999237060547
-737.10020379257367,31.799999237060547
-735.86872065898388,22.399999618530273
-734.63747577031063,15.199999809265137
-733.406469078187,30.200000762939453
-732.17570053426061,14.399999618530273
-730.94517009020092,21.600000381469727
-729.71487769768464,25
-728.48482330838851,5.5999999046325684
-727.25500687402564,29.200000762939453
-726.02542834630549,32.799999237060547
-724.79608767694481,20.799999237060547
-723.56698481768581,25.200000762939453
-722.33811972027434,30.600000381469727
-721.10949233647079,21.399999618530273
-719.88110261805014,17.600000381469727
-718.652950516791,6.1999998092651367
-717.42503598449366,28.799999237060547
-716.19735897296232,16.200000762939453
-714.96991943401918,20.799999237060547
-713.74271731949739,11.600000381469727
-712.515752581241,20.399999618530273
-711.28902517110146,26.200000762939453
-710.06253504095184,33.599998474121094
-708.83628214267264,13.199999809265137
-707.610266428148,26.799999237060547
-706.384487849291,33.200000762939453
-705.15894635801124,37
-703.93364190623652,16.799999237060547
-702.70857444590911,19.600000381469727
-701.48374392898586,25
-700.25915030741635,22
-699.03479353318289,14.800000190734863
-697.81067355827872,28
-696.58679033470071,33.200000762939453
-695.36314381444936,37
-694.1397339495652,16.200000762939453
-692.91656069207056,23.600000381469727
-691.69362399401689,27
-690.47092380745926,18.200000762939453
-689.24846008447821,36.400001525878906
-688.02623277714338,25.200000762939453
-686.80424183756077,29.399999618530273
-685.58248721782911,22.399999618530273
-684.360968870069,39.599998474121094
-683.13968674641546,29
-681.91864079900733,16.399999618530273
-680.69783097999425,17
-679.4772572415477,19
-678.25691953584283,13.399999618530273
-677.0368178150693,45
-675.81695203143136,26.399999618530273
-674.59732213714051,24.799999237060547
-673.37792808442282,15.800000190734863
-672.15876982551163,39.799999237060547
-670.9398473126621,18.200000762939453
-669.72116049812939,19
-668.50270933419051,25.200000762939453
-667.28449377312245,22.799999237060547
-666.0665137672313,26
-664.84876926881952,22.600000381469727
-663.63126023020413,20.399999618530273
-662.413986603724,29.399999618530273
-661.19694834172151,20
-659.9801453965465,25
-658.76357772057054,17.600000381469727
-657.54724526617247,53.200000762939453
-656.33114798573843,33.400001525878906
-655.11528583168,21.799999237060547
-653.89965875640155,24.600000381469727
-652.68426671233283,28.600000381469727
-651.46910965191455,45.799999237060547
-650.25418752759469,35.799999237060547
-649.03950029183216,25.799999237060547
-647.825047897104,34.200000762939453
-646.61083029589463,26
-645.39684744069928,40.599998474121094
-644.18309928402778,25
-642.96958577839359,27.200000762939453
-641.75630687633929,24.399999618530273
-640.54326253040745,25.799999237060547
-639.33045269314425,28
-638.117877317125,30.399999618530273
-636.90553635492142,30.799999237060547
-635.69342975913059,31
-634.481557482357,28.399999618530273
-633.26991947720853,24.399999618530273
-632.05851569631523,25.200000762939453
-630.84734609231418,24.799999237060547
-629.63641061784983,24
-628.4257092255848,19.600000381469727
-627.21524186819988,25.600000381469727
-626.00500849836862,21.399999618530273
-624.79500906879366,34.799999237060547
-623.58524353217763,35
-622.37571184124863,38.200000762939453
-621.1664139487275,44.799999237060547
-619.95734980736415,32.799999237060547
-618.74851936991581,40.400001525878906
-617.539922589136,32.799999237060547
-616.33155941781479,8.1999998092651367
-615.12342980873473,31.799999237060547
-613.91553371470036,29
-612.70787108852346,33.599998474121094
-611.50044188302672,25.799999237060547
-610.29324605104739,20.399999618530273
-609.08628354543725,41
-607.87955431905175,19.799999237060547
-606.67305832475722,28.600000381469727
-605.46679551544912,45.200000762939453
-604.26076584400835,28.799999237060547
-603.05496926335218,25
-601.849405726387,17
-600.64407518604821,43.599998474121094
-599.438977595275,48
-598.234112907021,33.400001525878906
-597.02948107425073,30
-595.82508204993974,37.799999237060547
-594.62091578707441,35.799999237060547
-593.41698223864842,22.600000381469727
-592.21328135768454,43.400001525878906
-591.009813097191,25
-589.80657741020877,38.799999237060547
-588.60357424978247,42.799999237060547
-587.4008035689676,32.400001525878906
-586.19826532083425,38.400001525878906
-584.99595945845977,37.200000762939453
-583.793885934936,33.400001525878906
-582.5920447033659,35.599998474121094
-581.39043571686307,36
-580.18905892855764,33.400001525878906
-578.98791429158518,28
-577.78700175909034,39.599998474121094
-576.58632128423778,40
-575.38587282020308,45.799999237060547
-574.1856563201618,28
-572.98567173731681,24.799999237060547
-571.78591902487278,13.800000190734863
-570.58639813603986,38
-569.38710902406274,33.400001525878906
-568.18805164217156,63.200000762939453
-566.98922594362557,32
-565.790631881684,30.399999618530273
-564.59226940962253,28.799999237060547
-563.39413848073127,25.600000381469727
-562.19623904831133,41.400001525878906
-560.99857106566742,35.799999237060547
-559.80113448612792,26
-558.60392926301938,17.399999618530273
-557.40695534968654,27.200000762939453
-556.21021269949415,41.799999237060547
-555.0137012658015,42
-553.81742100199153,44
-552.62137186145628,36.200000762939453
-551.4255537975896,14.600000381469727
-550.22996676381626,31
-549.03461071355377,44.200000762939453
-547.8394856002451,50.200000762939453
-546.64459137733138,35.799999237060547
-545.449927998272,43.799999237060547
-544.25549541654073,49
-543.06129358562066,32.200000762939453
-541.86732245900566,38.799999237060547
-540.67358199019873,28.200000762939453
-539.48007213271376,29.200000762939453
-538.28679284007922,34.400001525878906
-537.09374406584539,49
-535.900925763548,32.799999237060547
-534.70833788675736,50.799999237060547
-533.51598038904558,41.599998474121094
-532.32385322399932,33.200000762939453
-531.13195634520889,27.799999237060547
-529.94028970629006,30.799999237060547
-528.74885326085314,45.200000762939453
-527.55764696253573,37.599998474121094
-526.36667076497724,41.400001525878906
-525.17592462183165,32.200000762939453
-523.985408486762,55.599998474121094
-522.79512231344415,22.600000381469727
-521.60506605556839,26.600000381469727
-520.41523966682871,38.599998474121094
-519.22564310093912,29.399999618530273
-518.0362763116209,50.200000762939453
-516.84713925260257,27.399999618530273
-515.65823187763453,56.599998474121094
-514.46955414046715,36.400001525878906
-513.28110599486718,39.400001525878906
-512.09288739461954,51
-510.90489829350736,41.799999237060547
-509.71713864533194,27.799999237060547
-508.52960840390369,39.599998474121094
-507.3423075230512,37.799999237060547
-506.15523595660488,47.200000762939453
-504.96839365841697,35.400001525878906
-503.78178058233607,35.400001525878906
-502.59539668223624,32.599998474121094
-501.4092419119952,32.200000762939453
-500.223316225507,52
-499.0376195766712,57.599998474121094
-497.85215191940188,44.400001525878906
-496.666913207624,52
-495.48190339527719,40.599998474121094
-494.29712243630638,38.799999237060547
-493.11257028467116,32.599998474121094
-491.928246894342,44.400001525878906
-490.7441522193003,54.799999237060547
-489.56028621353471,55.599998474121094
-488.37664883105754,50.400001525878906
-487.19324002587746,48.200000762939453
-486.01005975202315,37.400001525878906
-484.8271079635324,47
-483.6443846144557,55.599998474121094
-482.46188965885085,39.400001525878906
-481.27962305079018,51.200000762939453
-480.09758474435512,53
-478.91577469364165,45
-477.73419285275304,50.200000762939453
-476.55283917580709,25.399999618530273
-475.37171361693436,51
-474.19081613026719,32.200000762939453
-473.010146669958,47.400001525878906
-471.82970519017181,41.599998474121094
-470.64949164507379,49
-469.46950598885633,52.599998474121094
-468.28974817570452,54.200000762939453
-467.1102181598344,64.800003051757813
-465.93091589545475,39
-464.75184133679977,50.599998474121094
-463.57299443810552,40.400001525878906
-462.39437515362624,53.799999237060547
-461.2159834376198,50.400001525878906
-460.03781924436043,54.400001525878906
-458.85988252813513,41.599998474121094
-457.68217324323632,55.599998474121094
-456.50469134396917,55.599998474121094
-455.32743678465886,57.200000762939453
-454.15040951962692,48.400001525878906
-452.97360950321672,45.799999237060547
-451.79703668977709,41
-450.62069103367321,60.799999237060547
-449.4445724892721,49.400001525878906
-448.26868101096989,49.599998474121094
-447.09301655315357,48
-445.9175790702302,59.599998474121094
-444.74236851661954,54.200000762939453
-443.56738484675407,48.400001525878906
-442.39262801506811,54.599998474121094
-441.21809797601236,50.799999237060547
-440.0437946840575,42
-438.86971809366878,42.599998474121094
-437.69586815933872,47.400001525878906
-436.52224483555256,44.599998474121094
-435.34884807682647,62
-434.17567783767481,34
-433.00273407262466,59.799999237060547
-431.83001673621948,52.200000762939453
-430.65752578300453,55.200000762939453
-429.4852611675542,47.599998474121094
-428.31322284443013,41.799999237060547
-427.14141076821943,55.799999237060547
-425.96982489351649,68.4000015258789
-424.79846517493388,59.799999237060547
-423.62733156708055,50.400001525878906
-422.45642402459453,50.799999237060547
-421.28574250211022,52.599998474121094
-420.1152869542766,63.200000762939453
-418.94505733575534,56.599998474121094
-417.77505360122632,63.799999237060547
-416.60527570536397,40.599998474121094
-415.43572360287,45.599998474121094
-414.26639724844608,52
-413.09729659681216,42.400001525878906
-411.92842160268992,67.199996948242188
-410.7597722208302,67.5999984741211
-409.59134840596926,58.400001525878906
-408.42315011287792,53.200000762939453
-407.2551772963252,47.799999237060547
-406.087429911091,44.599998474121094
-404.9199079119735,70.5999984741211
-403.75261125377619,56.799999237060547
-402.58553989131542,52.200000762939453
-401.41869377941293,53.599998474121094
-400.25207287291232,65.4000015258789
-399.08567712666627,57.599998474121094
-397.919506495522,60.799999237060547
-396.75356093436312,61.799999237060547
-395.58784039806596,47.799999237060547
-394.42234484151959,50.799999237060547
-393.25707421963307,63
-392.09202848732275,45.799999237060547
-390.92720759950862,68.800003051757813
-389.76261151112521,53.400001525878906
-388.59824017713072,40.599998474121094
-387.43409355247422,77.199996948242188
-386.27017159212846,64.199996948242188
-385.10647425107527,56.400001525878906
-383.94300148430193,44.599998474121094
-382.77975324681393,62.599998474121094
-381.616729493624,80.5999984741211
-380.453930179754,50.599998474121094
-379.29135526024038,53
-378.129004690134,58.599998474121094
-376.96687842448227,61
-375.80497641835791,59.599998474121094
-374.64329862683917,47
-373.4818450050152,52.799999237060547
-372.32061550798426,59.400001525878906
-371.15961009086277,69.199996948242188
-369.99882870877082,74.199996948242188
-368.83827131683756,65.199996948242188
-367.677937870214,61.200000762939453
-366.51782832404751,54.400001525878906
-365.3579426335109,74
-364.19828075377518,58.200000762939453
-363.03884264003136,65.5999984741211
-361.87962824747046,64.4000015258789
-360.7206375313126,68
-359.56187044677063,75
-358.403326949081,69.800003051757813
-357.24500699348027,51.200000762939453
-356.08691053522307,77.800003051757813
-354.92903752956954,58.799999237060547
-353.771387931798,87
-352.61396169719228,69.800003051757813
-351.45675878105067,64.4000015258789
-350.29977913867333,71.199996948242188
-349.14302272538407,66
-347.98648949651215,65
-346.83017940739046,46.799999237060547
-345.67409241337191,68.4000015258789
-344.51822846982031,65.5999984741211
-343.36258753210313,55.799999237060547
-342.20716955560965,60.400001525878906
-341.05197449572188,92.5999984741211
-339.89700230785638,72.800003051757813
-338.74225294741518,48.599998474121094
-337.58772636983667,72.199996948242188
-336.43342253054652,86.800003051757813
-335.27934138499768,62.599998474121094
-334.12548288865037,60.599998474121094
-332.97184699696481,71.4000015258789
-331.81843366542853,75.800003051757813
-330.66524284953266,71.800003051757813
-329.51227450476654,73.4000015258789
-328.35952858665769,81.4000015258789
-327.20700505071909,85.800003051757813
-326.05470385248555,71
-324.90262494750459,89
-323.75076829132558,59.200000762939453
-322.59913383951789,74
-321.44772154765633,46.799999237060547
-320.29653137132846,63
-319.14556326613092,70.4000015258789
-317.99481718767311,66.4000015258789
-316.84429309157531,86.5999984741211
-315.69399093346874,66.199996948242188
-314.54391066899007,86
-313.39405225379596,64.800003051757813
-312.24441564354129,73.5999984741211
-311.09500079390455,87.4000015258789
-309.94580766056788,72.800003051757813
-308.79683619922253,82
-307.64808636558337,96.5999984741211
-306.49955811535619,87
-305.35125140426862,86.199996948242188
-304.203166188061,70.800003051757813
-303.05530242247733,71
-301.90766006327794,71.199996948242188
-300.76023906623413,69.5999984741211
-299.61303938712081,105.59999847412109
-298.46606098173288,85.5999984741211
-297.31930380586527,81.199996948242188
-296.17276781533837,90.4000015258789
-295.02645296596893,79
-293.88035921359551,74.5999984741211
-292.73448651404942,108.19999694824219
-291.58883482319834,89.199996948242188
-290.44340409690449,82
-289.29819429103554,88
-288.15320536148647,104.80000305175781
-287.0084372641486,79.199996948242188
-285.86388995493689,84.800003051757813
-284.7195633897627,81.800003051757813
-283.57545752455371,83.800003051757813
-282.431572315254,96.800003051757813
-281.28790771781496,99.4000015258789
-280.1444636881879,115.40000152587891
-279.00124018235692,94.5999984741211
-277.8582371562934,92.5999984741211
-276.71545456599597,73
-275.57289236746692,91
-274.43055051671945,85.800003051757813
-273.28842896977221,101.59999847412109
-272.14652768267115,93.800003051757813
-271.00484661145128,91.4000015258789
-269.86338571217493,93
-268.72214494090622,87
-267.581124253722,96.800003051757813
-266.44032360671372,98.4000015258789
-265.29974295597458,95.4000015258789
-264.159382257616,86.4000015258789
-263.01924146776037,93.4000015258789
-261.87932054252815,87.4000015258789
-260.73961943807444,99.4000015258789
-259.60013811053796,96.4000015258789
-258.46087651608468,82.5999984741211
-257.32183461088971,93.4000015258789
-256.18301235113358,88
-255.04440969300595,83.4000015258789
-253.90602659271462,110.80000305175781
-252.76786300647473,104.59999847412109
-251.62991889051045,101.19999694824219
-250.49219420105146,94
-249.35468889435288,104.59999847412109
-248.217402926668,113.40000152587891
-247.08033625425924,90.4000015258789
-245.94348883341445,103.59999847412109
-244.80686062040877,91.800003051757813
-243.67045157154826,119.19999694824219
-242.53426164314442,117.19999694824219
-241.39829079150877,109.80000305175781
-240.26253897297829,76.800003051757813
-239.12700614388814,102.59999847412109
-237.99169226059348,111.59999847412109
-236.85659727945676,90.199996948242188
-235.72172115684771,105.80000305175781
-234.58706384914331,106
-233.4526253127442,131
-232.31840550405468,106.59999847412109
-231.18440437947902,111.59999847412109
-230.05062189545242,110.19999694824219
-228.91705800840282,91.800003051757813
-227.78371267477996,127.19999694824219
-226.65058585103725,108
-225.51767749363898,110
-224.38498755906403,103.19999694824219
-223.2525160037967,125.59999847412109
-222.1202627843395,110.59999847412109
-220.98822785719858,104
-219.85641117888918,122.40000152587891
-218.7248127059429,99.4000015258789
-217.59343239489681,112.40000152587891
-216.46227020230072,99.800003051757813
-215.3313260847226,103.19999694824219
-214.20059999872137,112.59999847412109
-213.07009190087956,116.19999694824219
-211.9398017477979,112
-210.80972949606621,100.80000305175781
-209.67987510230523,121.19999694824219
-208.5502385231357,115.80000305175781
-207.42081971518564,109.80000305175781
-206.29161863510308,119
-205.16263523954149,122.40000152587891
-204.03386948516163,118
-202.90532132864428,121
-201.77699072666474,134.39999389648438
-200.64887763592742,124.80000305175781
-199.52098201313311,124.80000305175781
-198.39330381500076,122.19999694824219
-197.26584299825117,123.40000152587891
-196.13859951962695,124.80000305175781
-195.01157333587253,127.40000152587891
-193.88476440374143,148.39999389648438
-192.75817268001083,143
-191.63179812144881,146.80000305175781
-190.50564068485255,139.39999389648438
-189.3797003270156,161.19999694824219
-188.25397700474423,148
-187.12847067486291,166.39999389648438
-186.00318129420339,163.19999694824219
-184.87810881960104,189.80000305175781
-183.75325320790944,176
-182.62861441598398,178.19999694824219
-181.50419240070187,164.19999694824219
-180.37998711894033,198.39999389648438
-179.25599852759296,191.80000305175781
-178.13222658356062,212.80000305175781
-177.00867124376236,229.60000610351563
-175.88533246510815,246.60000610351563
-174.76221020454068,248
-173.63930441900084,201.39999389648438
-172.51661506544224,186.39999389648438
-171.39414210082759,208
-170.27188548212871,209.60000610351563
-169.14984516633558,227
-168.02802111043638,220.39999389648438
-166.90641327144112,228.39999389648438
-165.78502160636344,281.79998779296875
-164.66384607223154,263.20001220703125
-163.54288662607541,277.79998779296875
-162.4221432249451,261.20001220703125
-161.30161582589426,279.60000610351563
-160.18130438598928,284.60000610351563
-159.06120886230929,277
-157.94132921194432,249.80000305175781
-156.82166539198624,254.39999389648438
-155.70221735953965,253.60000610351563
-154.58298507173095,226
-153.46396848568111,227.80000305175781
-152.34516755853474,235.39999389648438
-151.22658224743282,263.20001220703125
-150.10821250953813,229.60000610351563
-148.99005830202077,261.79998779296875
-147.87211958205626,235
-146.75439630683832,241
-145.63688843355885,276.39999389648438
-144.51959591943705,310.39999389648438
-143.40251872168847,325.20001220703125
-142.28565679753956,334.60000610351563
-141.16901010423499,316.79998779296875
-140.05257859902849,328.60000610351563
-138.93636223917383,324.79998779296875
-137.82036098194294,289.39999389648438
-136.70457478462595,317
-135.58900360449843,307.20001220703125
-134.47364739887416,317.60000610351563
-133.35850612506329,300.79998779296875
-132.24357974038321,306.20001220703125
-131.12886820217136,289.20001220703125
-130.01437146776334,290.39999389648438
-128.90008949451476,296.39999389648438
-127.78602223979033,296.39999389648438
-126.67216966095839,281.39999389648438
-125.55853171540366,250
-124.44510836051813,255.39999389648438
-123.33189955371017,229.80000305175781
-122.2189052523845,261.20001220703125
-121.10612541397313,253.80000305175781
-119.9935599959008,271
-118.88120895561769,233.60000610351563
-117.76907225057403,244.80000305175781
-116.65714983823818,251.60000610351563
-115.54544167607855,279
-114.43394772158354,285
-113.32266793224335,286.60000610351563
-112.21160226556458,289.60000610351563
-111.10075067906291,310.20001220703125
-109.99011313026131,314.20001220703125
-108.87968957669545,294.39999389648438
-107.76947997590833,322.60000610351563
-106.65948428545926,348
-105.54970246290759,378.20001220703125
-104.44013446582903,413.20001220703125
-103.33078025181567,471.39999389648438
-102.22163977845048,572.5999755859375
-101.11271300335284,753.79998779296875
-100.00399988412755,972.4000244140625
-98.8955003784049,996.20001220703125
-97.787214443818812,945
-96.679142038015925,793.4000244140625
-95.571283118651991,619.4000244140625
-94.46363764339003,579.5999755859375
-93.356205569909434,670.4000244140625
-92.248986855895055,748.79998779296875
-91.141981459042654,760
-90.035189337055272,785.5999755859375
-88.928610447654137,604.4000244140625
-87.8222447485623,625
-86.716092197515536,618.79998779296875
-85.610152752264185,673.79998779296875
-84.504426370558576,690.5999755859375
-83.3989130101636,628.5999755859375
-82.29361262886232,605.20001220703125
-81.188525184439641,579.79998779296875
-80.083650634691367,612.79998779296875
-78.978988937416943,647.5999755859375
-77.8745400504431,666.4000244140625
-76.7703039315893,666.4000244140625
-75.666280538693172,730.4000244140625
-74.56246982959965,799.4000244140625
-73.45887176217002,773.79998779296875
-72.355486294265575,775
-71.2523133837658,811.20001220703125
-70.149352988557439,756.79998779296875
-69.046605066534539,791
-67.944069575602043,832.20001220703125
-66.84174647367945,886.4000244140625
-65.739635718693535,1017.7999877929688
-64.63773726857471,1306.4000244140625
-63.5360510812734,1942.199951171875
-62.434577114750937,3224.39990234375
-61.3333153269632,4930.2001953125
-60.232265675895178,5985.2001953125
-59.131428119522752,6154.2001953125
-58.030802615854554,5241.2001953125
-56.930389122886481,3931
-55.830187598636257,3550.39990234375
-54.730198001132521,3866
-53.630420288413006,5000
-52.530854418515446,7931.7998046875
-51.431500349504859,12582.2001953125
-50.332358039440805,15133.7998046875
-49.233427446402857,14966.7998046875
-48.134708528470583,12203.7998046875
-47.036201243741743,7697
-45.937905550323194,6798.60009765625
-44.839821406334522,6160.2001953125
-43.74194876988804,5186
-42.64428759913244,3310
-41.5468378522055,2492.800048828125
-40.449599487265004,2494.39990234375
-39.352572462472381,2734.39990234375
-38.255756736005424,2860.199951171875
-37.159152266047386,2770.60009765625
-36.062759010790614,2415
-34.966576928443828,2091.39990234375
-33.8706059772212,2200.800048828125
-32.774846115338732,3740.199951171875
-31.679297301039696,7313.60009765625
-30.583959492563736,11347.599609375
-29.488832648166863,13666.2001953125
-28.393916726110547,12665.400390625
-27.299211684672628,10685.599609375
-26.204717482129126,8597.400390625
-25.110434076774254,8082.39990234375
-24.016361426916774,7746.60009765625
-22.922499490865448,5216.7998046875
-21.828848226945411,2846.60009765625
-20.735407593489072,2326.800048828125
-19.642177548834297,2231.39990234375
-18.549158051340783,2194.60009765625
-17.456349059368222,2183
-16.363750531281767,2204.800048828125
-15.271362425470215,2309.60009765625
-14.179184700326005,2320.800048828125
-13.087217314247027,2466.60009765625
-11.995460225642091,2538.199951171875
-10.903913392940012,2641.199951171875
-9.8125767745696066,2733.60009765625
-8.7214503289651475,2921.60009765625
-7.6305340145827358,3089.60009765625
-6.5398277898821107,3106.199951171875
-5.4493316133357439,2768.800048828125
-4.3590454434179264,1987.4000244140625
-3.26896923861932,1111
-2.1791029574433196,1579.4000244140625
-1.0894465583987767,1651.199951171875
-3.637978807091713E-12,1306.5999755859375
1.0892367592168739,2138.39990234375
2.1782637607157085,1210.199951171875
3.2670810459494533,1991.5999755859375
4.3556886563619628,2953.39990234375
5.4440866333861777,3509
6.5322750184368488,3594.60009765625
7.6202538529305457,3475
8.7080231782692863,3252.800048828125
9.7955830358478124,3082.800048828125
10.882933467048133,3032.39990234375
11.970074513241343,2954.199951171875
13.0570062157949,2950.39990234375
14.143728616063527,2935
15.230241755389216,2834.60009765625
16.316545675103043,2861.39990234375
17.402640416532449,2881.39990234375
18.488526020995778,3003.60009765625
19.574202529791364,3111.199951171875
20.659669984221182,3585.199951171875
21.744928425567196,5831
22.82997789510955,9520.2001953125
23.914818434106564,11490.7998046875
24.99945008382565,13205.400390625
26.083872885503297,15335
27.168086880381452,17305.400390625
28.252092109691148,21514
29.33588861464159,21897.400390625
30.419476436449258,15605.599609375
31.502855616305169,9408.2001953125
32.586026195402155,4330.7998046875
33.668988214920319,3567.800048828125
34.751741716028846,3877.199951171875
35.834286739884192,4555.39990234375
36.916623327637353,5172.7998046875
37.998751520428414,5376.2001953125
39.080671359392,5032.39990234375
40.162382885640909,4713.2001953125
41.243886140291579,5289.60009765625
42.325181164447713,7889.7998046875
43.406267999200281,11203.7998046875
44.4871466856257,13262.400390625
45.5678172648004,15257.599609375
46.648279777786229,19354.400390625
47.72853426563961,27890.599609375
48.8085807694024,33568.3984375
49.888419330107354,35120.6015625
50.968049988779967,27730.19921875
52.047472786436629,15951.400390625
53.126687764075541,10813.2001953125
54.205694962698544,9095.400390625
55.284494423289289,8903
56.363086186827786,10465.7998046875
57.44147029427404,13899.400390625
58.519646786589874,16417
59.597615704718919,16255.7998046875
60.67537708960117,13603.2001953125
61.752930982163889,8568
62.83027742332888,5009.39990234375
63.90741645399612,3515.60009765625
64.984348115074681,2857.800048828125
66.061072447448169,2434.39990234375
67.13758949199655,2241.60009765625
68.213899289597975,2180.60009765625
69.29000188109967,2242.39990234375
70.36589730736705,2271.800048828125
71.441585609234608,2289.199951171875
72.517066827535018,2347.199951171875
73.592341003088222,2323.39990234375
74.667408176715981,2259.199951171875
75.742268389207311,2108.39990234375
76.816921681369422,2070
77.891368093980418,2095.60009765625
78.965607667816585,2070.800048828125
80.039640443639655,2013.199951171875
81.113466462209544,2064.800048828125
82.187085764271615,2050.199951171875
83.260498390560315,2212.60009765625
84.333704381804637,2289.199951171875
85.40670377871902,2285
86.479496622014267,2177.199951171875
87.552082952388446,2225.199951171875
88.624462810528712,2680.39990234375
89.6966362371113,3006.39990234375
90.76860327281247,3205
91.840363958286616,3115.60009765625
92.911918334189977,2560.800048828125
93.983266441158776,2303.800048828125
95.054408319829236,2619.800048828125
96.12534401081939,3548.39990234375
97.19607355474,4333.7998046875
98.2665969922,4789.60009765625
99.336914363786491,4523.60009765625
100.40702571009024,3487.199951171875
101.47693107168197,2519.800048828125
102.54663048912334,2003.800048828125
103.61612400297781,1757.4000244140625
104.68541165378701,1560.4000244140625
105.75449348208713,1438.5999755859375
106.82336952840706,1370
107.89203983326297,1328.199951171875
108.96050443715831,1324.199951171875
110.02876338060378,1317
111.09681670407736,1272.199951171875
112.16466444806247,1232.800048828125
113.23230665302981,1183.800048828125
114.2997433594428,1192.199951171875
115.36697460774849,1100
116.43400043838665,1077
117.50082089179705,1100.199951171875
118.56743600839945,1109.800048828125
119.63384582860272,1116.199951171875
120.70005039281386,1116.5999755859375
121.76604974143083,1131.4000244140625
122.83184391483519,1140
123.89743295340486,1216
124.96281689750322,1272.800048828125
126.02799578748636,1337.4000244140625
127.09296966370857,1417
128.15773856649867,1531.4000244140625
129.22230253619455,1592.5999755859375
130.28666161311048,1716
131.35081583755345,1751.800048828125
132.414765249825,1781.4000244140625
133.47850989022481,1892
134.54204979901988,1894.199951171875
135.60538501649535,1949.800048828125
136.66851558290364,1991.4000244140625
137.73144153850444,2170.800048828125
138.79416292353926,2268.800048828125
139.85667977824414,2342.39990234375
140.91899214284422,2396.199951171875
141.9811000575537,2416.800048828125
143.0430035625759,2297.39990234375
144.10470269811231,2206.800048828125
145.16619750435348,1985.800048828125
146.22748802146998,1833.4000244140625
147.28857428963602,1765.5999755859375
148.3494563490076,1659.800048828125
149.41013423973891,1591.4000244140625
150.47060800196778,1660.199951171875
151.53087767582292,1676.800048828125
152.59094330143125,1742.199951171875
153.65080491890512,1872.5999755859375
154.71046256834779,1986.5999755859375
155.76991628984433,2121.199951171875
156.82916612349436,2193.39990234375
157.88821210936294,2212
158.94705428751695,2289.60009765625
160.00569269801963,2385.39990234375
161.06412738090876,2547.60009765625
162.12235837622939,2660.800048828125
163.18038572400837,2729.39990234375
164.23820946425803,2609.199951171875
165.29582963700341,2371
166.35324628222952,2096
167.41045943993777,1968.4000244140625
168.4674691501059,1795.800048828125
169.52427545270439,1791
170.58087838770371,1821
171.63727799505432,1939.4000244140625
172.6934743146976,2066
173.74946738657491,2235
174.80525725060761,2413
175.86084394671525,2391.800048828125
176.91622751480463,2248.800048828125
177.97140799477529,2045.4000244140625
179.02638542651403,1903.4000244140625
180.08115984989854,1733.5999755859375
181.13573130480836,1656
182.1900998310939,1618.199951171875
183.24426546861469,1612.199951171875
184.29822825721203,1636.5999755859375
185.35198823671635,1583.5999755859375
186.40554544695078,1467.199951171875
187.45889992773846,1353.199951171875
188.51205171887523,1235.4000244140625
189.5650008601624,1124.800048828125
190.61774739138855,1072.4000244140625
191.67029135232588,999
192.72263278274659,963.5999755859375
193.77477172241379,884.20001220703125
194.82670821106694,864.5999755859375
195.87844228846188,861.79998779296875
196.92997399431806,804.79998779296875
197.98130336836039,801
199.03243045030285,761.20001220703125
200.083355279854,792
201.13407789669873,710
202.18459834053465,751
203.23491665102665,740.79998779296875
204.28503286785053,724.20001220703125
205.33494703066026,686.20001220703125
206.38465917910617,726
207.43416935282403,676
208.48347759144417,668.4000244140625
209.53258393459691,690.79998779296875
210.58148842188348,706.79998779296875
211.63019109291054,703.20001220703125
212.67869198727021,692.5999755859375
213.726991144551,701.4000244140625
214.775088604325,695.5999755859375
215.82298440615341,690.79998779296875
216.8706785896029,695.4000244140625
217.91817119421466,723.4000244140625
218.96546225952443,735.79998779296875
220.01255182506975,757
221.05943993036635,732.5999755859375
222.10612661491905,718
223.15261191823993,740.4000244140625
224.19889587981743,739.79998779296875
225.24497853913635,727
226.29085993566514,706.20001220703125
227.33654010887221,677.4000244140625
228.38201909822055,672.20001220703125
229.42729694314221,673.5999755859375
230.47237368309288,668
231.51724935748462,599
232.56192400574764,621.5999755859375
233.60639766728673,619.20001220703125
234.65067038150482,640.79998779296875
235.69474218779396,668.4000244140625
236.73861312553527,614.79998779296875
237.78228323410804,597.4000244140625
238.82575255286974,638.4000244140625
239.86902112117787,606.5999755859375
240.9120889783826,626.20001220703125
241.95495616381777,619.4000244140625
242.99762271681357,625.20001220703125
244.04008867668745,608.4000244140625
245.08235408274959,620.79998779296875
246.1244189743029,627.4000244140625
247.16628339063755,655.20001220703125
248.20794737103279,613.20001220703125
249.24941095476788,643
250.29067418110571,632
251.33173708930008,601.79998779296875
252.37259971859567,621.5999755859375
253.41326210823536,604.4000244140625
254.45372429744384,596.20001220703125
255.49398632544035,614.20001220703125
256.53404823143683,625
257.57391005463069,621.20001220703125
258.61357183421751,667.4000244140625
259.65303360938196,620.5999755859375
260.69229541928871,598
261.73135730310787,610.5999755859375
262.77021929999864,610.20001220703125
263.80888144910386,595.5999755859375
264.84734378955909,628
265.88560636049988,633.20001220703125
266.92366920103996,632
267.9615323502876,631.4000244140625
268.99919584735289,629.4000244140625
270.03665973132047,614.4000244140625
271.07392404127677,638.79998779296875
272.1109888162955,649.79998779296875
273.14785409544129,631.20001220703125
274.18451991776965,667.20001220703125
275.22098632233428,667.5999755859375
276.25725334816525,649.5999755859375
277.29332103429442,650.20001220703125
278.32918941974458,663.4000244140625
279.36485854352395,671
280.40032844463531,628.5999755859375
281.43559916207232,655.20001220703125
282.4706707348214,653.4000244140625
283.50554320185074,679.5999755859375
284.540216602134,659
285.57469097462854,668.4000244140625
286.60896635827521,681.20001220703125
287.6430427920186,684.4000244140625
288.67692031479055,729.5999755859375
289.71059896550651,710.79998779296875
290.74407878308375,697.79998779296875
291.777359806425,733.4000244140625
292.81044207441846,733.79998779296875
293.84332562596137,813.5999755859375
294.87601049991827,840.4000244140625
295.90849673516095,896.20001220703125
296.94078437055396,898.4000244140625
297.97287344493816,935.20001220703125
299.00476399715808,919.5999755859375
300.03645606604368,912.79998779296875
301.06794969041584,845.79998779296875
302.09924490909361,781.20001220703125
303.13034176088149,746.4000244140625
304.16124028456943,757.79998779296875
305.1919405189492,775.79998779296875
306.222442502798,771.5999755859375
307.25274627488216,862.79998779296875
308.2828518739625,854.4000244140625
309.31275933879624,896.4000244140625
310.34246870811512,903.20001220703125
311.37198002066361,909.79998779296875
312.40129331515891,867.4000244140625
313.43040863031638,849.4000244140625
314.45932600484593,818.4000244140625
315.48804547744476,762.79998779296875
316.51656708679729,762.20001220703125
317.54489087158618,768.79998779296875
318.57301687048675,741.20001220703125
319.60094512215619,733.5999755859375
320.62867566524437,726.4000244140625
321.65620853840483,721.79998779296875
322.68354378026197,713.5999755859375
323.71068142945296,704.79998779296875
324.73762152458949,701.20001220703125
325.76436410428141,689.20001220703125
326.79090920712588,694.20001220703125
327.81725687171638,700.20001220703125
328.84340713663732,679
329.86936004045674,665.5999755859375
330.8951156217463,693
331.92067391905039,705.20001220703125
332.9460349709243,651.79998779296875
333.97119881590334,668
334.99616549251732,660
336.02093503928518,674.20001220703125
337.04550749471673,684.5999755859375
338.06988289731453,666.4000244140625
339.09406128557566,644
340.11804269798085,699
341.14182717300719,668.20001220703125
342.16541474912265,681.79998779296875
343.18880546478249,684.79998779296875
344.21199935844015,673
345.23499646853088,666.79998779296875
346.25779683349174,670
347.2804004917416,686
348.30280748169571,650.20001220703125
349.3250178417602,705.20001220703125
350.34703161032849,668
351.36884882579034,671.20001220703125
352.39046952652461,674.5999755859375
353.41189375090107,687
354.43312153727675,677.79998779296875
355.45415292401049,689.79998779296875
356.47498794944113,679.79998779296875
357.49562665190388,699.79998779296875
358.51606906973029,661.5999755859375
359.53631524122466,694.79998779296875
360.55636520471126,681
361.576218998478,695.4000244140625
362.59587666081825,720
363.6153382300181,709.5999755859375
364.63460374434362,741.79998779296875
365.65367324206454,715.20001220703125
366.67254676143239,795.20001220703125
367.69122434069686,811.4000244140625
368.70970601810041,808.5999755859375
369.7279918318618,753.5999755859375
370.74608182021075,738.4000244140625
371.7639760213533,701.20001220703125
372.78167447349733,716.5999755859375
373.79917721483071,742.4000244140625
374.81648428354674,727.5999755859375
375.8335957178133,727.4000244140625
376.85051155580732,748.79998779296875
377.86723183568211,764.79998779296875
378.88375659558915,705.79998779296875
379.90008587367265,740.4000244140625
380.91621970806045,729.79998779296875
381.932158136884,734
382.94790119825484,740.5999755859375
383.96344893028072,740.20001220703125
384.97880137105676,709.5999755859375
385.99395855867624,728.79998779296875
387.0089205312197,714.20001220703125
388.02368732675495,717
389.03825898334981,727.20001220703125
390.05263553905752,729.5999755859375
391.06681703192226,739.79998779296875
392.08080349998454,740.20001220703125
393.09459498126671,747.4000244140625
394.10819151379292,764.5999755859375
395.12159313558004,773.5999755859375
396.13479988461768,748.20001220703125
397.14781179890815,782
398.16062891643014,763
399.17325127516779,743.4000244140625
400.18567891308157,752.4000244140625
401.19791186813563,764.20001220703125
402.20995017827954,766
403.22179388145014,768.79998779296875
404.23344301558427,771.4000244140625
405.24489761860423,731.20001220703125
406.256157728425,811.5999755859375
407.26722338295986,781.4000244140625
408.27809462009827,783
409.28877147773528,784.79998779296875
410.29925399374588,782.79998779296875
411.30954220601052,775
412.31963615238783,757.5999755859375
413.3295358707328,789
414.33924139889314,787
415.348752774702,763.20001220703125
416.35807003599439,789.20001220703125
417.36719322058889,779.20001220703125
418.3761223662932,789.79998779296875
419.38485751091685,785.79998779296875
420.39339869224932,776.20001220703125
421.4017459480765,783.5999755859375
422.4098993161806,779.20001220703125
423.41785883432567,794.20001220703125
424.42562454027211,784.4000244140625
425.43319647177304,752.5999755859375
426.44057466656886,774.4000244140625
427.44775916239269,813.5999755859375
428.45474999697581,820.20001220703125
429.46154720802588,815.20001220703125
430.46815083326146,803.5999755859375
431.474560910372,778.79998779296875
432.48077747705611,803
433.48680057099773,824.20001220703125
434.4926302298627,797
435.49826649132046,798.5999755859375
436.50370939302593,806.5999755859375
437.50895897263217,792.4000244140625
438.5140152677759,874.20001220703125
439.51887831608292,830.4000244140625
440.52354815518265,816.20001220703125
441.52802482268817,838.20001220703125
442.532308356198,828.79998779296875
443.53639879331604,834.20001220703125
444.54029617162814,839.79998779296875
445.54400052871461,837.79998779296875
446.54751190214483,843.5999755859375
447.55083032947732,831.20001220703125
448.553955848276,835.79998779296875
449.55688849607577,853.5999755859375
450.55962831042052,862.4000244140625
451.56217532883238,824.4000244140625
452.56452958883892,841.4000244140625
453.56669112794589,878.5999755859375
454.56865998365174,871
455.57043619345859,865
456.57201979484853,842.79998779296875
457.57341082529638,836.79998779296875
458.57460932227514,830.79998779296875
459.57561532323962,836.5999755859375
460.57642886564281,874.5999755859375
461.57704998692861,838.79998779296875
462.57747872453183,850.79998779296875
463.57771511587816,892.20001220703125
464.57775919838059,877.5999755859375
465.5776110094539,844.20001220703125
466.57727058649289,871.20001220703125
467.57673796689414,894
468.5760131880379,886.20001220703125
469.57509628729895,887.20001220703125
470.57398730204477,923
471.57268626963196,943.79998779296875
472.57119322740982,988.5999755859375
473.56950821272039,991
474.56763126289479,927.79998779296875
475.56556241525323,924.4000244140625
476.56330170711954,931.5999755859375
477.5608491757921,885.79998779296875
478.55820485857475,895.79998779296875
479.55536879275314,886.20001220703125
480.55234101561109,869
481.54912156442151,933
482.54571047644822,912
483.54210778894412,898.4000244140625
484.5383135391603,883.5999755859375
485.53432776433874,911
486.53015050170507,917.5999755859375
487.52578178848125,898.4000244140625
488.521221661882,904.79998779296875
489.51647015911294,894.4000244140625
490.511527317376,907.5999755859375
491.50639317384957,897.20001220703125
492.50106776571556,912.79998779296875
493.49555113015049,914.5999755859375
494.48984330431631,904.20001220703125
495.48394432536406,896.20001220703125
496.477854230443,890.4000244140625
497.47157305668588,922.4000244140625
498.46510084122747,914.79998779296875
499.45843762119148,963.20001220703125
500.45158343368166,913.4000244140625
501.44453831580358,888.79998779296875
502.43730230465735,915
503.4298754373267,915
504.42225775089173,875.20001220703125
505.41444928242527,894.20001220703125
506.40645006898194,889.5999755859375
507.39826014762366,896.20001220703125
508.38987955538869,917.79998779296875
509.38130832932075,919.79998779296875
510.3725465064399,927.4000244140625
511.36359412377169,953.20001220703125
512.35445121832345,918.4000244140625
513.345117827108,932.79998779296875
514.33559398710713,915
515.32587973531554,929.79998779296875
516.31597510870961,930.79998779296875
517.305880144253,952
518.29559487891856,906.5999755859375
519.2851193496499,922.20001220703125
520.27445359339254,933.4000244140625
521.2635976470865,948.20001220703125
522.25255154765728,936.79998779296875
523.24131533202308,923.5999755859375
524.22988903709665,945.20001220703125
525.21827269978348,933.4000244140625
526.20646635697267,949.4000244140625
527.19447004554968,933.20001220703125
528.18228380239634,944
529.16990766437993,940.4000244140625
530.15734166836046,999.20001220703125
531.14458585119428,964.79998779296875
532.13164024971957,953.4000244140625
533.11850490077813,957.5999755859375
534.1051798411936,940.79998779296875
535.09166510778778,995.4000244140625
536.0779607373679,958.4000244140625
537.06406676674123,978.4000244140625
538.04998323269865,984.79998779296875
539.03571017202739,960.79998779296875
540.02124762150379,1008.4000244140625
541.00659561790053,986.79998779296875
541.99175419797393,984
542.97672339848032,1002.7999877929688
543.96150325615963,982.20001220703125
544.94609380775364,1016.2000122070313
545.93049508998593,1000.7999877929688
546.91470713957824,1011
547.89872999324143,965.79998779296875
548.88256368767543,993.79998779296875
549.86620825957834,988.79998779296875
550.84966374563555,1022.4000244140625
551.83293018252334,1023
552.81600760691072,1009.5999755859375
553.79889605546123,1054.4000244140625
554.78159556482933,1008.2000122070313
555.76410617165857,1020
556.74642791258339,1039.800048828125
557.72856082423277,1049.5999755859375
558.71050494323026,1046.199951171875
559.692260306183,1024.199951171875
560.67382694969274,1056.199951171875
561.65520491036477,1005.4000244140625
562.63639422477536,1036
563.617394929508,1028.4000244140625
564.59820706113169,1024.4000244140625
565.5788306562099,1032.4000244140625
566.55926575129524,1035.199951171875
567.53951238293848,1059.5999755859375
568.51957058766675,1075.199951171875
569.49944040201626,1055.5999755859375
570.47912186250869,1087
571.45861500565115,1096.199951171875
572.43791986795441,1089.800048828125
573.417036485911,1079.199951171875
574.3959648960099,1085
575.37470513472908,1131.5999755859375
576.35325723854476,1101.199951171875
577.3316212439131,1119
578.309797187294,1107
579.28778510513439,1106.4000244140625
580.26558503387241,1112.5999755859375
581.24319700993874,1073.4000244140625
582.22062106975318,1091
583.1978572497319,1096.199951171875
584.17490558627833,1069
585.15176611579591,1073.5999755859375
586.12843887466624,1102
587.1049238992764,1076.4000244140625
588.08122122599343,1096
589.05733089119167,1078.5999755859375
590.03325293122,1103.800048828125
591.00898738242722,1064.5999755859375
591.98453428115681,1112.800048828125
592.95989366373578,1097.199951171875
593.93506556649481,1127.800048828125
594.91005002574457,1049.5999755859375
595.88484707779207,1102.5999755859375
596.85945675894072,1114
597.83387910547935,1108.4000244140625
598.808114153695,1094
599.78216193985281,1052.5999755859375
600.7560225002253,1073.199951171875
601.729695871074,1113.5999755859375
602.70318208864228,1108
603.67648118917714,1121.800048828125
604.64959320891285,1076.4000244140625
605.62251818407458,1118
606.59525615087659,1093.4000244140625
607.56780714553315,1134.800048828125
608.54017120424214,1151.5999755859375
609.51234836320145,1102.4000244140625
610.48433865859079,1099.800048828125
611.45614212658984,1135
612.42775880336558,1115.199951171875
613.39918872508315,1136.800048828125
614.37043192788951,1118
615.34148844793526,1135.800048828125
616.31235832134917,1089.800048828125
617.28304158426727,1153.4000244140625
618.253538272802,1128.4000244140625
619.2238484230711,1128.5999755859375
620.19397207117981,1148.800048828125
621.16390925321321,1134.199951171875
622.13366000527276,1146.4000244140625
623.103224363429,1132.199951171875
624.07260236375441,1159
625.04179404231763,1161
626.01079943516561,1179.5999755859375
626.97961857835253,1187.199951171875
627.94825150791621,1149.199951171875
628.91669825988356,1176
629.8849588702833,1124.199951171875
630.85303337512414,1155.800048828125
631.8209218104148,1127.4000244140625
632.7886242121549,1163.199951171875
633.75614061633678,1153
634.72347105893823,1209
635.69061557593523,1137.199951171875
636.65757420329646,1151.800048828125
637.6243469769779,1197.4000244140625
638.59093393293,1154.5999755859375
639.55733510709615,1161.4000244140625
640.5235505354085,1163.4000244140625
641.48958025379216,1148
642.45542429816669,1173.4000244140625
643.4210827044426,1196
644.38655550851945,1181.800048828125
645.351842746295,1134.4000244140625
646.31694445364883,1175.199951171875
647.28186066646231,1164.199951171875
648.24659142060591,1155.800048828125
649.21113675193737,1179.4000244140625
650.17549669631444,1188.4000244140625
651.13967128958211,1184
652.10366056757266,1155.5999755859375
653.067464566122,1149
654.03108332104784,1205.800048828125
654.99451686816428,1168
655.95776524327266,1152.5999755859375
656.920828482178,1147.5999755859375
657.88370662066518,1144.199951171875
658.84639969451382,1195.800048828125
659.80890773950159,1173.199951171875
660.77123079139164,1164.4000244140625
661.733368885938,1174.4000244140625
662.69532205889118,1179.199951171875
663.65709034599786,1201.199951171875
664.61867378298484,1162.800048828125
665.58007240558072,1210.4000244140625
666.54128624949954,1193
667.50231535045532,1175
668.46315974414392,1180
669.42381946626119,1148.800048828125
670.38429455249025,1226.5999755859375
671.34458503851238,1206
672.30469095999615,1193.800048828125
673.2646123525974,1169.199951171875
674.224349251972,1213.4000244140625
675.18390169377017,1254.5999755859375
676.14326971362243,1230.199951171875
677.10245334716274,1218.800048828125
678.0614526300069,1227.800048828125
679.02026759777618,1210
679.97889828607,1235
680.93734473048789,1239.800048828125
681.89560696662011,1219.5999755859375
682.85368503004611,1227.800048828125
683.81157895634169,1224.5999755859375
684.76928878106992,1217.800048828125
