-777.87311982425126,0
-776.63374739947358,27
-775.39461482227671,5.1999998092651367
-774.15572204389719,4.1999998092651367
-772.91706901559337,7.4000000953674316
-771.67865568863454,-1.6000000238418579
-770.44048201429,-0.800000011920929
-769.20254794384346,16.799999237060547
-767.96485342860433,-2.2000000476837158
-766.7273984198855,-11.600000381469727
-765.49018286900719,7.1999998092651367
-764.25320672730777,-7
-763.01646994613657,12.600000381469727
-761.77997247685744,-16.799999237060547
-760.5437142708488,8.6000003814697266
-759.307695279489,8.1999998092651367
-758.07191545417118,-10
-756.83637474631723,0.40000000596046448
-755.601073107342,10.199999809265137
-754.36601048868215,6.1999998092651367
-753.13118684178153,4.5999999046325684
-751.89660211810587,6.8000001907348633
-750.66225626912092,0.40000000596046448
-749.42814924630693,-2.2000000476837158
-748.19428100116238,9.6000003814697266
-746.960651485193,-2.7999999523162842
-745.72726064991912,-4.8000001907348633
-744.49410844686827,22
-743.26119482758622,-9.1999998092651367
-742.02851974362966,-3.2000000476837158
-740.79608314656616,6.1999998092651367
-739.5638849879706,4.4000000953674316
-738.331925219436,-0.60000002384185791
-737.10020379257367,16
-735.86872065898388,-4
-734.63747577031063,2.2000000476837158
-733.406469078187,5.8000001907348633
-732.17570053426061,14.199999809265137
-730.94517009020092,0.800000011920929
-729.71487769768464,1.2000000476837158
-728.48482330838851,10.199999809265137
-727.25500687402564,1.2000000476837158
-726.02542834630549,9.6000003814697266
-724.79608767694481,2.2000000476837158
-723.56698481768581,-1.7999999523162842
-722.33811972027434,8
-721.10949233647079,-12.800000190734863
-719.88110261805014,18.799999237060547
-718.652950516791,-7.5999999046325684
-717.42503598449366,16.200000762939453
-716.19735897296232,1.3999999761581421
-714.96991943401918,5
-713.74271731949739,-9.8000001907348633
-712.515752581241,-1.3999999761581421
-711.28902517110146,14.199999809265137
-710.06253504095184,14.800000190734863
-708.83628214267264,-2.7999999523162842
-707.610266428148,9.3999996185302734
-706.384487849291,3.2000000476837158
-705.15894635801124,-2
-703.93364190623652,12
-702.70857444590911,3
-701.48374392898586,1.6000000238418579
-700.25915030741635,3.2000000476837158
-699.03479353318289,3
-697.81067355827872,3.7999999523162842
-696.58679033470071,-0.40000000596046448
-695.36314381444936,11.399999618530273
-694.1397339495652,0.20000000298023224
-692.91656069207056,-7
-691.69362399401689,14.800000190734863
-690.47092380745926,3.5999999046325684
-689.24846008447821,6.5999999046325684
-688.02623277714338,-1.2000000476837158
-686.80424183756077,-1.2000000476837158
-685.58248721782911,4.1999998092651367
-684.360968870069,-0.60000002384185791
-683.13968674641546,14.600000381469727
-681.91864079900733,10.800000190734863
-680.69783097999425,-2.7999999523162842
-679.4772572415477,-4.8000001907348633
-678.25691953584283,6.5999999046325684
-677.0368178150693,-0.800000011920929
-675.81695203143136,8
-674.59732213714051,3.7999999523162842
-673.37792808442282,-5.1999998092651367
-672.15876982551163,3.5999999046325684
-670.9398473126621,-11
-669.72116049812939,2.4000000953674316
-668.50270933419051,-5.1999998092651367
-667.28449377312245,3.4000000953674316
-666.0665137672313,9.1999998092651367
-664.84876926881952,2.5999999046325684
-663.63126023020413,-3.4000000953674316
-662.413986603724,4.4000000953674316
-661.19694834172151,-7.8000001907348633
-659.9801453965465,-4
-658.76357772057054,1.3999999761581421
-657.54724526617247,19.799999237060547
-656.33114798573843,-0.40000000596046448
-655.11528583168,18.200000762939453
-653.89965875640155,-16.600000381469727
-652.68426671233283,8.3999996185302734
-651.46910965191455,10.600000381469727
-650.25418752759469,-4.8000001907348633
-649.03950029183216,9
-647.825047897104,2.4000000953674316
-646.61083029589463,-5
-645.39684744069928,3.2000000476837158
-644.18309928402778,7.5999999046325684
-642.96958577839359,-1.2000000476837158
-641.75630687633929,-5.1999998092651367
-640.54326253040745,-4.4000000953674316
-639.33045269314425,11.199999809265137
-638.117877317125,12.399999618530273
-636.90553635492142,0
-635.69342975913059,1.3999999761581421
-634.481557482357,9.6000003814697266
-633.26991947720853,-0.20000000298023224
-632.05851569631523,-10.199999809265137
-630.84734609231418,4.8000001907348633
-629.63641061784983,-9
-628.4257092255848,-0.800000011920929
-627.21524186819988,2.7999999523162842
-626.00500849836862,-9.1999998092651367
-624.79500906879366,14.399999618530273
-623.58524353217763,-5.8000001907348633
-622.37571184124863,7
-621.1664139487275,1.6000000238418579
-619.95734980736415,0.60000002384185791
-618.74851936991581,4
-617.539922589136,14.800000190734863
-616.33155941781479,-18.399999618530273
-615.12342980873473,-5
-613.91553371470036,1
-612.70787108852346,1
-611.50044188302672,-3.5999999046325684
-610.29324605104739,6.1999998092651367
-609.08628354543725,10.800000190734863
-607.87955431905175,-0.800000011920929
-606.67305832475722,4.5999999046325684
-605.46679551544912,9.6000003814697266
-604.26076584400835,-14.800000190734863
-603.05496926335218,1.7999999523162842
-601.849405726387,-2.4000000953674316
-600.64407518604821,-2
-599.438977595275,3
-598.234112907021,-3.2000000476837158
-597.02948107425073,-2.2000000476837158
-595.82508204993974,13.800000190734863
-594.62091578707441,-5
-593.41698223864842,-3.7999999523162842
-592.21328135768454,-1.6000000238418579
-591.009813097191,4
-589.80657741020877,-0.20000000298023224
-588.60357424978247,12.199999809265137
-587.4008035689676,-4
-586.19826532083425,12
-584.99595945845977,11.399999618530273
-583.793885934936,-1.6000000238418579
-582.5920447033659,4
-581.39043571686307,2
-580.18905892855764,-8
-578.98791429158518,9
-577.78700175909034,5.1999998092651367
-576.58632128423778,-7
-575.38587282020308,6.1999998092651367
-574.1856563201618,-6.1999998092651367
-572.98567173731681,-3
-571.78591902487278,1.7999999523162842
-570.58639813603986,9.1999998092651367
-569.38710902406274,-3.4000000953674316
-568.18805164217156,18.200000762939453
-566.98922594362557,-0.800000011920929
-565.790631881684,-7
-564.59226940962253,2
-563.39413848073127,-4.4000000953674316
-562.19623904831133,-2.2000000476837158
-560.99857106566742,10.399999618530273
-559.80113448612792,-17.399999618530273
-558.60392926301938,-5.8000001907348633
-557.40695534968654,3
-556.21021269949415,-13.600000381469727
-555.0137012658015,2.2000000476837158
-553.81742100199153,3
-552.62137186145628,7.5999999046325684
-551.4255537975896,-8
-550.22996676381626,-14.399999618530273
-549.03461071355377,1
-547.8394856002451,13
-546.64459137733138,-2
-545.449927998272,0
-544.25549541654073,-1.2000000476837158
-543.06129358562066,9.1999998092651367
-541.86732245900566,-3.2000000476837158
-540.67358199019873,-7.5999999046325684
-539.48007213271376,-7.4000000953674316
-538.28679284007922,-17.200000762939453
-537.09374406584539,1.7999999523162842
-535.900925763548,-18.399999618530273
-534.70833788675736,-5
-533.51598038904558,-10.600000381469727
-532.32385322399932,-10.399999618530273
-531.13195634520889,-14.199999809265137
-529.94028970629006,-13.199999809265137
-528.74885326085314,-5.1999998092651367
-527.55764696253573,3.5999999046325684
-526.36667076497724,5.1999998092651367
-525.17592462183165,-0.800000011920929
-523.985408486762,5.4000000953674316
-522.79512231344415,-9.8000001907348633
-521.60506605556839,-7.8000001907348633
-520.41523966682871,-14.800000190734863
-519.22564310093912,-26.200000762939453
-518.0362763116209,5.1999998092651367
-516.84713925260257,-9.6000003814697266
-515.65823187763453,-1.6000000238418579
-514.46955414046715,-4.1999998092651367
-513.28110599486718,-11.199999809265137
-512.09288739461954,12
-510.90489829350736,-1.6000000238418579
-509.71713864533194,-5.8000001907348633
-508.52960840390369,-13
-507.3423075230512,-1.3999999761581421
-506.15523595660488,-9.8000001907348633
-504.96839365841697,-11.800000190734863
-503.78178058233607,0.800000011920929
-502.59539668223624,-11.800000190734863
-501.4092419119952,-16
-500.223316225507,16.799999237060547
-499.0376195766712,-11.600000381469727
-497.85215191940188,-8.1999998092651367
-496.666913207624,10.199999809265137
-495.48190339527719,-4.1999998092651367
-494.29712243630638,-7.1999998092651367
-493.11257028467116,-11.600000381469727
-491.928246894342,-2.7999999523162842
-490.7441522193003,8.6000003814697266
-489.56028621353471,2.7999999523162842
-488.37664883105754,0.800000011920929
-487.19324002587746,-9.8000001907348633
-486.01005975202315,-12.600000381469727
-484.8271079635324,11.199999809265137
-483.6443846144557,0.800000011920929
-482.46188965885085,-10.800000190734863
-481.27962305079018,5.1999998092651367
-480.09758474435512,-0.40000000596046448
-478.91577469364165,7.8000001907348633
-477.73419285275304,-15
-476.55283917580709,-8
-475.37171361693436,-7.8000001907348633
-474.19081613026719,-13.399999618530273
-473.010146669958,-15.800000190734863
-471.82970519017181,2.4000000953674316
-470.64949164507379,-8.6000003814697266
-469.46950598885633,1
-468.28974817570452,-6.8000001907348633
-467.1102181598344,-7.5999999046325684
-465.93091589545475,-9.3999996185302734
-464.75184133679977,-12.800000190734863
-463.57299443810552,-4.4000000953674316
-462.39437515362624,7.4000000953674316
-461.2159834376198,-10.600000381469727
-460.03781924436043,-1.2000000476837158
-458.85988252813513,-7.8000001907348633
-457.68217324323632,1.2000000476837158
-456.50469134396917,-5
-455.32743678465886,-8.3999996185302734
-454.15040951962692,-8.3999996185302734
-452.97360950321672,-7.4000000953674316
-451.79703668977709,-6.5999999046325684
-450.62069103367321,-11.399999618530273
-449.4445724892721,12.600000381469727
-448.26868101096989,-9
-447.09301655315357,-8
-445.9175790702302,-3.7999999523162842
-444.74236851661954,7.5999999046325684
-443.56738484675407,-8.6000003814697266
-442.39262801506811,2.4000000953674316
-441.21809797601236,-8
-440.0437946840575,-0.40000000596046448
-438.86971809366878,-14.600000381469727
-437.69586815933872,6.1999998092651367
-436.52224483555256,-9.8000001907348633
-435.34884807682647,-13.600000381469727
-434.17567783767481,-11.800000190734863
-433.00273407262466,-5.1999998092651367
-431.83001673621948,-11.199999809265137
-430.65752578300453,-11
-429.4852611675542,13.199999809265137
-428.31322284443013,-14.600000381469727
-427.14141076821943,4.8000001907348633
-425.96982489351649,2
-424.79846517493388,-10.600000381469727
-423.62733156708055,-9
-422.45642402459453,-16.600000381469727
-421.28574250211022,-8.6000003814697266
-420.1152869542766,2.4000000953674316
-418.94505733575534,-4.4000000953674316
-417.77505360122632,-18.399999618530273
-416.60527570536397,-7.5999999046325684
-415.43572360287,-16
-414.26639724844608,-14.600000381469727
-413.09729659681216,-19.200000762939453
-411.92842160268992,9.1999998092651367
-410.7597722208302,-11.199999809265137
-409.59134840596926,-9.8000001907348633
-408.42315011287792,-15
-407.2551772963252,-11.399999618530273
-406.087429911091,-18.399999618530273
-404.9199079119735,4.1999998092651367
-403.75261125377619,-5.4000000953674316
-402.58553989131542,-5
-401.41869377941293,-8.3999996185302734
-400.25207287291232,-25.200000762939453
-399.08567712666627,-1
-397.919506495522,0.20000000298023224
-396.75356093436312,-12
-395.58784039806596,-13
-394.42234484151959,-15.399999618530273
-393.25707421963307,0.20000000298023224
-392.09202848732275,-21.799999237060547
-390.92720759950862,0.40000000596046448
-389.76261151112521,-13.600000381469727
-388.59824017713072,-13.399999618530273
-387.43409355247422,6.4000000953674316
-386.27017159212846,-26
-385.10647425107527,-16.399999618530273
-383.94300148430193,-0.800000011920929
-382.77975324681393,-5.5999999046325684
-381.616729493624,5.4000000953674316
-380.453930179754,-18.200000762939453
-379.29135526024038,-20.600000381469727
-378.129004690134,-21.200000762939453
-376.96687842448227,0.20000000298023224
-375.80497641835791,-18.200000762939453
-374.64329862683917,-5.1999998092651367
-373.4818450050152,-33.799999237060547
-372.32061550798426,-14.399999618530273
-371.15961009086277,-2.4000000953674316
-369.99882870877082,10.399999618530273
-368.83827131683756,-30.200000762939453
-367.677937870214,-14.800000190734863
-366.51782832404751,-13.199999809265137
-365.3579426335109,-14.600000381469727
-364.19828075377518,-22.600000381469727
-363.03884264003136,-22.600000381469727
-361.87962824747046,-8
-360.7206375313126,-16.399999618530273
-359.56187044677063,2
-358.403326949081,-2.7999999523162842
-357.24500699348027,-19.799999237060547
-356.08691053522307,2.4000000953674316
-354.92903752956954,-26.799999237060547
-353.771387931798,-13.800000190734863
-352.61396169719228,-11
-351.45675878105067,-25.600000381469727
-350.29977913867333,-6.5999999046325684
-349.14302272538407,-7.5999999046325684
-347.98648949651215,-30.200000762939453
-346.83017940739046,-7.5999999046325684
-345.67409241337191,-20.200000762939453
-344.51822846982031,-18.600000381469727
-343.36258753210313,-28.200000762939453
-342.20716955560965,-15.600000381469727
-341.05197449572188,0.800000011920929
-339.89700230785638,-11.399999618530273
-338.74225294741518,-14
-337.58772636983667,-18.799999237060547
-336.43342253054652,-2.4000000953674316
-335.27934138499768,-29
-334.12548288865037,-28
-332.97184699696481,-4.4000000953674316
-331.81843366542853,1.3999999761581421
-330.66524284953266,-15.399999618530273
-329.51227450476654,-17.799999237060547
-328.35952858665769,-3.5999999046325684
-327.20700505071909,-9.3999996185302734
-326.05470385248555,-22.799999237060547
-324.90262494750459,6.1999998092651367
-323.75076829132558,-8.3999996185302734
-322.59913383951789,-11.199999809265137
-321.44772154765633,-26.200000762939453
-320.29653137132846,-31.399999618530273
-319.14556326613092,-14.800000190734863
-317.99481718767311,-20.799999237060547
-316.84429309157531,8.3999996185302734
-315.69399093346874,-17
-314.54391066899007,0
-313.39405225379596,-14.399999618530273
-312.24441564354129,-4.1999998092651367
-311.09500079390455,-5.5999999046325684
-309.94580766056788,-18.799999237060547
-308.79683619922253,-13
-307.64808636558337,2
-306.49955811535619,-17.399999618530273
-305.35125140426862,3.2000000476837158
-304.203166188061,-20
-303.05530242247733,-20.200000762939453
-301.90766006327794,-13.199999809265137
-300.76023906623413,-23.399999618530273
-299.61303938712081,-15.800000190734863
-298.46606098173288,-27.799999237060547
-297.31930380586527,-6.8000001907348633
-296.17276781533837,-17.600000381469727
-295.02645296596893,-13
-293.88035921359551,-19.600000381469727
-292.73448651404942,-11.399999618530273
-291.58883482319834,-12.199999809265137
-290.44340409690449,-2.4000000953674316
-289.29819429103554,-9.8000001907348633
-288.15320536148647,-4.8000001907348633
-287.0084372641486,-13.199999809265137
-285.86388995493689,-15.800000190734863
-284.7195633897627,-10.800000190734863
-283.57545752455371,-14.399999618530273
-282.431572315254,-9.3999996185302734
-281.28790771781496,1.7999999523162842
-280.1444636881879,0.20000000298023224
-279.00124018235692,-20.799999237060547
-277.8582371562934,-10.399999618530273
-276.71545456599597,-3.2000000476837158
-275.57289236746692,-11
-274.43055051671945,-31.600000381469727
-273.28842896977221,-7.8000001907348633
-272.14652768267115,-8.3999996185302734
-271.00484661145128,-21.600000381469727
-269.86338571217493,-15
-268.72214494090622,-20.799999237060547
-267.581124253722,-15.399999618530273
-266.44032360671372,-7.5999999046325684
-265.29974295597458,-6.1999998092651367
-264.159382257616,-23
-263.01924146776037,2.5999999046325684
-261.87932054252815,-21
-260.73961943807444,-22.799999237060547
-259.60013811053796,6.8000001907348633
-258.46087651608468,-4.5999999046325684
-257.32183461088971,-19.200000762939453
-256.18301235113358,-0.40000000596046448
-255.04440969300595,-24.200000762939453
-253.90602659271462,-5.8000001907348633
-252.76786300647473,-16.799999237060547
-251.62991889051045,-7
-250.49219420105146,-12.399999618530273
-249.35468889435288,-2.5999999046325684
-248.217402926668,-13.399999618530273
-247.08033625425924,-10.199999809265137
-245.94348883341445,0
-244.80686062040877,-21.799999237060547
-243.67045157154826,-12.600000381469727
-242.53426164314442,-13.399999618530273
-241.39829079150877,-10
-240.26253897297829,-17.200000762939453
-239.12700614388814,-6.8000001907348633
-237.99169226059348,-2.7999999523162842
-236.85659727945676,-12.800000190734863
-235.72172115684771,-5.4000000953674316
-234.58706384914331,-1.2000000476837158
-233.4526253127442,6.4000000953674316
-232.31840550405468,-16.399999618530273
-231.18440437947902,-13.800000190734863
-230.05062189545242,2.7999999523162842
-228.91705800840282,-6
-227.78371267477996,9.1999998092651367
-226.65058585103725,-17.799999237060547
-225.51767749363898,7.8000001907348633
-224.38498755906403,2.2000000476837158
-223.2525160037967,-16
-222.1202627843395,2.2000000476837158
-220.98822785719858,-10.800000190734863
-219.85641117888918,-0.40000000596046448
-218.7248127059429,-4.8000001907348633
-217.59343239489681,-16.799999237060547
-216.46227020230072,6.1999998092651367
-215.3313260847226,-3.4000000953674316
-214.20059999872137,18
-213.07009190087956,-2.5999999046325684
-211.9398017477979,8
-210.80972949606621,-1
-209.67987510230523,3.4000000953674316
-208.5502385231357,5
-207.42081971518564,-10.399999618530273
-206.29161863510308,-9.8000001907348633
-205.16263523954149,10.399999618530273
-204.03386948516163,20.799999237060547
-202.90532132864428,-5.1999998092651367
-201.77699072666474,7
-200.64887763592742,10.600000381469727
-199.52098201313311,10.399999618530273
-198.39330381500076,8.8000001907348633
-197.26584299825117,5.4000000953674316
-196.13859951962695,-1.2000000476837158
-195.01157333587253,14.600000381469727
-193.88476440374143,29
-192.75817268001083,5.8000001907348633
-191.63179812144881,37.799999237060547
-190.50564068485255,13.600000381469727
-189.3797003270156,17.399999618530273
-188.25397700474423,34.400001525878906
-187.12847067486291,29.200000762939453
-186.00318129420339,19.600000381469727
-184.87810881960104,69.800003051757813
-183.75325320790944,34.799999237060547
-182.62861441598398,44
-181.50419240070187,39.200000762939453
-180.37998711894033,52
-179.25599852759296,65.800003051757813
-178.13222658356062,56.599998474121094
-177.00867124376236,58.200000762939453
-175.88533246510815,77
-174.76221020454068,82.4000015258789
-173.63930441900084,63.200000762939453
-172.51661506544224,71.199996948242188
-171.39414210082759,75.800003051757813
-170.27188548212871,90.800003051757813
-169.14984516633558,93
-168.02802111043638,80
-166.90641327144112,77.5999984741211
-165.78502160636344,120
-164.66384607223154,97
-163.54288662607541,122.19999694824219
-162.4221432249451,89.4000015258789
-161.30161582589426,122.40000152587891
-160.18130438598928,122.80000305175781
-159.06120886230929,99.800003051757813
-157.94132921194432,100.19999694824219
-156.82166539198624,100.40000152587891
-155.70221735953965,127.19999694824219
-154.58298507173095,134.19999694824219
-153.46396848568111,105.40000152587891
-152.34516755853474,142.39999389648438
-151.22658224743282,148.60000610351563
-150.10821250953813,112.40000152587891
-148.99005830202077,148.60000610351563
-147.87211958205626,115.19999694824219
-146.75439630683832,146.19999694824219
-145.63688843355885,141
-144.51959591943705,159.19999694824219
-143.40251872168847,159.60000610351563
-142.28565679753956,165.60000610351563
-141.16901010423499,180.39999389648438
-140.05257859902849,185.19999694824219
-138.93636223917383,184.80000305175781
-137.82036098194294,202
-136.70457478462595,218.80000305175781
-135.58900360449843,221
-134.47364739887416,211
-133.35850612506329,201.80000305175781
-132.24357974038321,248.60000610351563
-131.12886820217136,244
-130.01437146776334,225.39999389648438
-128.90008949451476,232.19999694824219
-127.78602223979033,211.39999389648438
-126.67216966095839,244.19999694824219
-125.55853171540366,220
-124.44510836051813,217
-123.33189955371017,195.19999694824219
-122.2189052523845,193.39999389648438
-121.10612541397313,212.60000610351563
-119.9935599959008,188.19999694824219
-118.88120895561769,205.80000305175781
-117.76907225057403,178.19999694824219
-116.65714983823818,170
-115.54544167607855,196.39999389648438
-114.43394772158354,213.39999389648438
-113.32266793224335,203.80000305175781
-112.21160226556458,191.19999694824219
-111.10075067906291,220.19999694824219
-109.99011313026131,201
-108.87968957669545,222.80000305175781
-107.76947997590833,232.60000610351563
-106.65948428545926,229
-105.54970246290759,242
-104.44013446582903,252.19999694824219
-103.33078025181567,285.79998779296875
-102.22163977845048,298.39999389648438
-101.11271300335284,291.20001220703125
-100.00399988412755,342.79998779296875
-98.8955003784049,357.20001220703125
-97.787214443818812,397.60000610351563
-96.679142038015925,439
-95.571283118651991,458.60000610351563
-94.46363764339003,469
-93.356205569909434,478.60000610351563
-92.248986855895055,462.79998779296875
-91.141981459042654,470.79998779296875
-90.035189337055272,521.5999755859375
-88.928610447654137,526
-87.8222447485623,534.5999755859375
-86.716092197515536,460.60000610351563
-85.610152752264185,452.39999389648438
-84.504426370558576,438.20001220703125
-83.3989130101636,432.79998779296875
-82.29361262886232,413
-81.188525184439641,421.79998779296875
-80.083650634691367,382
-78.978988937416943,392.60000610351563
-77.8745400504431,381.79998779296875
-76.7703039315893,386.39999389648438
-75.666280538693172,428.79998779296875
-74.56246982959965,439.79998779296875
-73.45887176217002,416.60000610351563
-72.355486294265575,495
-71.2523133837658,520.79998779296875
-70.149352988557439,557.79998779296875
-69.046605066534539,563.79998779296875
-67.944069575602043,596.4000244140625
-66.84174647367945,681.4000244140625
-65.739635718693535,692.5999755859375
-64.63773726857471,723.79998779296875
-63.5360510812734,829.4000244140625
-62.434577114750937,896.20001220703125
-61.3333153269632,1102.199951171875
-60.232265675895178,1253.4000244140625
-59.131428119522752,1470.199951171875
-58.030802615854554,1816
-56.930389122886481,2134.199951171875
-55.830187598636257,2433.60009765625
-54.730198001132521,2534.199951171875
-53.630420288413006,2651.39990234375
-52.530854418515446,2780.39990234375
-51.431500349504859,3290.39990234375
-50.332358039440805,4255.7998046875
-49.233427446402857,5038.60009765625
-48.134708528470583,5261.7998046875
-47.036201243741743,5051.7998046875
-45.937905550323194,4360.2001953125
-44.839821406334522,3579.39990234375
-43.74194876988804,2919.800048828125
-42.64428759913244,2399.39990234375
-41.5468378522055,2085.800048828125
-40.449599487265004,1978.199951171875
-39.352572462472381,1954.800048828125
-38.255756736005424,1876.4000244140625
-37.159152266047386,1788.4000244140625
-36.062759010790614,1679.800048828125
-34.966576928443828,1519.199951171875
-33.8706059772212,1612.4000244140625
-32.774846115338732,1964
-31.679297301039696,2807.60009765625
-30.583959492563736,3713.800048828125
-29.488832648166863,4287.2001953125
-28.393916726110547,4523
-27.299211684672628,4476.7998046875
-26.204717482129126,4713.39990234375
-25.110434076774254,4623
-24.016361426916774,4147.60009765625
-22.922499490865448,3230.800048828125
-21.828848226945411,2222.800048828125
-20.735407593489072,1608.4000244140625
-19.642177548834297,1383.4000244140625
-18.549158051340783,1189.199951171875
-17.456349059368222,1169.199951171875
-16.363750531281767,1126.199951171875
-15.271362425470215,1110.199951171875
-14.179184700326005,1060.800048828125
-13.087217314247027,1048.800048828125
-11.995460225642091,1100
-10.903913392940012,1088
-9.8125767745696066,1165.199951171875
-8.7214503289651475,1154.800048828125
-7.6305340145827358,1262.4000244140625
-6.5398277898821107,1259.5999755859375
-5.4493316133357439,1112.199951171875
-4.3590454434179264,827
-3.26896923861932,610.20001220703125
-2.1791029574433196,2192.39990234375
-1.0894465583987767,2218.800048828125
-3.637978807091713E-12,1384.800048828125
1.0892367592168739,2521.39990234375
2.1782637607157085,704.5999755859375
3.2670810459494533,860.4000244140625
4.3556886563619628,1212.800048828125
5.4440866333861777,1439.199951171875
6.5322750184368488,1440
7.6202538529305457,1408.5999755859375
8.7080231782692863,1270.800048828125
9.7955830358478124,1180.5999755859375
10.882933467048133,1210.4000244140625
11.970074513241343,1165.5999755859375
13.0570062157949,1130.199951171875
14.143728616063527,1244.4000244140625
15.230241755389216,1229
16.316545675103043,1300.199951171875
17.402640416532449,1382.4000244140625
18.488526020995778,1545
19.574202529791364,1810
20.659669984221182,2402.800048828125
21.744928425567196,3498.800048828125
22.82997789510955,4732.39990234375
23.914818434106564,5485.60009765625
24.99945008382565,5585.7998046875
26.083872885503297,5437.2001953125
27.168086880381452,5358.7998046875
28.252092109691148,5202.2001953125
29.33588861464159,4773.39990234375
30.419476436449258,3735
31.502855616305169,2667.800048828125
32.586026195402155,2132.199951171875
33.668988214920319,1933.800048828125
34.751741716028846,2047.199951171875
35.834286739884192,2227.60009765625
36.916623327637353,2374.199951171875
37.998751520428414,2470.199951171875
39.080671359392,2499.800048828125
40.162382885640909,2607.60009765625
41.243886140291579,2903.800048828125
42.325181164447713,3497.199951171875
43.406267999200281,4353
44.4871466856257,5297
45.5678172648004,6432.39990234375
46.648279777786229,7028.39990234375
47.72853426563961,6941.60009765625
48.8085807694024,6339.60009765625
49.888419330107354,5107.39990234375
50.968049988779967,4135.2001953125
52.047472786436629,3830.39990234375
53.126687764075541,3705
54.205694962698544,3645.39990234375
55.284494423289289,3352.60009765625
56.363086186827786,2913.199951171875
57.44147029427404,2463.199951171875
58.519646786589874,2063
59.597615704718919,1741.4000244140625
60.67537708960117,1450.199951171875
61.752930982163889,1343.4000244140625
62.83027742332888,1224
63.90741645399612,1124.199951171875
64.984348115074681,1102.199951171875
66.061072447448169,1007.5999755859375
67.13758949199655,917.79998779296875
68.213899289597975,905.5999755859375
69.29000188109967,882.5999755859375
70.36589730736705,793
71.441585609234608,780.5999755859375
72.517066827535018,770.4000244140625
73.592341003088222,693.79998779296875
74.667408176715981,661.4000244140625
75.742268389207311,655.79998779296875
76.816921681369422,646.79998779296875
77.891368093980418,654.20001220703125
78.965607667816585,675.4000244140625
80.039640443639655,713.4000244140625
81.113466462209544,706.4000244140625
82.187085764271615,699.79998779296875
83.260498390560315,754.4000244140625
84.333704381804637,730.5999755859375
85.40670377871902,800.5999755859375
86.479496622014267,848
87.552082952388446,951.20001220703125
88.624462810528712,887.4000244140625
89.6966362371113,911.4000244140625
90.76860327281247,834
91.840363958286616,811.79998779296875
92.911918334189977,857.79998779296875
93.983266441158776,868.20001220703125
95.054408319829236,841
96.12534401081939,814.5999755859375
97.19607355474,675.5999755859375
98.2665969922,662
99.336914363786491,599.4000244140625
100.40702571009024,569.20001220703125
101.47693107168197,532.20001220703125
102.54663048912334,539.20001220703125
103.61612400297781,528.79998779296875
104.68541165378701,505.60000610351563
105.75449348208713,515.20001220703125
106.82336952840706,462.60000610351563
107.89203983326297,486.79998779296875
108.96050443715831,438.39999389648438
110.02876338060378,445.20001220703125
111.09681670407736,435.20001220703125
112.16466444806247,451.39999389648438
113.23230665302981,431.20001220703125
114.2997433594428,446.79998779296875
115.36697460774849,418
116.43400043838665,400.39999389648438
117.50082089179705,427
118.56743600839945,433.20001220703125
119.63384582860272,466.60000610351563
120.70005039281386,439.60000610351563
121.76604974143083,448.60000610351563
122.83184391483519,480
123.89743295340486,483.20001220703125
124.96281689750322,514.79998779296875
126.02799578748636,525
127.09296966370857,515.4000244140625
128.15773856649867,556.20001220703125
129.22230253619455,531.20001220703125
130.28666161311048,531.79998779296875
131.35081583755345,559
132.414765249825,537.20001220703125
133.47850989022481,518.20001220703125
134.54204979901988,527.20001220703125
135.60538501649535,505.39999389648438
136.66851558290364,475
137.73144153850444,513
138.79416292353926,470.20001220703125
139.85667977824414,467.79998779296875
140.91899214284422,457.39999389648438
141.9811000575537,440.20001220703125
143.0430035625759,418
144.10470269811231,432.39999389648438
145.16619750435348,400.20001220703125
146.22748802146998,386.20001220703125
147.28857428963602,394.60000610351563
148.3494563490076,374.79998779296875
149.41013423973891,364.60000610351563
150.47060800196778,358.20001220703125
151.53087767582292,370.39999389648438
152.59094330143125,356
153.65080491890512,343.20001220703125
154.71046256834779,348.20001220703125
155.76991628984433,344.60000610351563
156.82916612349436,369.20001220703125
157.88821210936294,351.20001220703125
158.94705428751695,358.39999389648438
160.00569269801963,345.39999389648438
161.06412738090876,333.39999389648438
162.12235837622939,349.20001220703125
163.18038572400837,330.39999389648438
164.23820946425803,341
165.29582963700341,317.39999389648438
166.35324628222952,299.60000610351563
167.41045943993777,293.20001220703125
168.4674691501059,301.79998779296875
169.52427545270439,276.60000610351563
170.58087838770371,263
171.63727799505432,284.20001220703125
172.6934743146976,260.79998779296875
173.74946738657491,251.19999694824219
174.80525725060761,246.19999694824219
175.86084394671525,227.39999389648438
176.91622751480463,226.80000305175781
177.97140799477529,234
179.02638542651403,220.19999694824219
180.08115984989854,204.60000610351563
181.13573130480836,194.80000305175781
182.1900998310939,165
183.24426546861469,172.60000610351563
184.29822825721203,167.39999389648438
185.35198823671635,152.60000610351563
186.40554544695078,153.39999389648438
187.45889992773846,140.60000610351563
188.51205171887523,141.80000305175781
189.5650008601624,112.80000305175781
190.61774739138855,123.80000305175781
191.67029135232588,107.19999694824219
192.72263278274659,94.4000015258789
193.77477172241379,91.199996948242188
194.82670821106694,100.80000305175781
195.87844228846188,101.59999847412109
196.92997399431806,75.5999984741211
197.98130336836039,94.5999984741211
199.03243045030285,89.4000015258789
200.083355279854,80.800003051757813
201.13407789669873,69.800003051757813
202.18459834053465,67
203.23491665102665,64.800003051757813
204.28503286785053,69.4000015258789
205.33494703066026,71.5999984741211
206.38465917910617,75.4000015258789
207.43416935282403,69.4000015258789
208.48347759144417,59.400001525878906
209.53258393459691,74.4000015258789
210.58148842188348,65.800003051757813
211.63019109291054,72.4000015258789
212.67869198727021,56.200000762939453
213.726991144551,61.400001525878906
214.775088604325,55.200000762939453
215.82298440615341,78.5999984741211
216.8706785896029,53.799999237060547
217.91817119421466,51.599998474121094
218.96546225952443,66.800003051757813
220.01255182506975,60.400001525878906
221.05943993036635,80.199996948242188
222.10612661491905,65.4000015258789
223.15261191823993,36.200000762939453
224.19889587981743,55.799999237060547
225.24497853913635,40
226.29085993566514,57.400001525878906
227.33654010887221,53
228.38201909822055,36.799999237060547
229.42729694314221,43.200000762939453
230.47237368309288,47
231.51724935748462,23.399999618530273
232.56192400574764,32
233.60639766728673,35.599998474121094
234.65067038150482,42.799999237060547
235.69474218779396,27.799999237060547
236.73861312553527,29.399999618530273
237.78228323410804,17.600000381469727
238.82575255286974,31.600000381469727
239.86902112117787,25.799999237060547
240.9120889783826,38.400001525878906
241.95495616381777,11.199999809265137
242.99762271681357,32.400001525878906
244.04008867668745,16.600000381469727
245.08235408274959,32.200000762939453
246.1244189743029,13.199999809265137
247.16628339063755,29.799999237060547
248.20794737103279,8.3999996185302734
249.24941095476788,38.799999237060547
250.29067418110571,38.200000762939453
251.33173708930008,20.799999237060547
252.37259971859567,10.800000190734863
253.41326210823536,24
254.45372429744384,22
255.49398632544035,22
256.53404823143683,23.600000381469727
257.57391005463069,6.5999999046325684
258.61357183421751,46.799999237060547
259.65303360938196,16.799999237060547
260.69229541928871,13.399999618530273
261.73135730310787,18.399999618530273
262.77021929999864,38
263.80888144910386,16.200000762939453
264.84734378955909,21
265.88560636049988,21
266.92366920103996,11.800000190734863
267.9615323502876,25.799999237060547
268.99919584735289,12.600000381469727
270.03665973132047,28
271.07392404127677,18
272.1109888162955,23
273.14785409544129,17.399999618530273
274.18451991776965,22
275.22098632233428,32.599998474121094
276.25725334816525,17.200000762939453
277.29332103429442,31.200000762939453
278.32918941974458,36
279.36485854352395,24.799999237060547
280.40032844463531,7.5999999046325684
281.43559916207232,23.799999237060547
282.4706707348214,35
283.50554320185074,21.399999618530273
284.540216602134,23
285.57469097462854,7.4000000953674316
286.60896635827521,37.599998474121094
287.6430427920186,18.200000762939453
288.67692031479055,21.799999237060547
289.71059896550651,33.799999237060547
290.74407878308375,41.799999237060547
291.777359806425,33
292.81044207441846,20.399999618530273
293.84332562596137,30.200000762939453
294.87601049991827,23
295.90849673516095,25
296.94078437055396,10.600000381469727
297.97287344493816,16
299.00476399715808,4.8000001907348633
300.03645606604368,31.200000762939453
301.06794969041584,3.2000000476837158
302.09924490909361,10
303.13034176088149,14.199999809265137
304.16124028456943,21.600000381469727
305.1919405189492,13
306.222442502798,21.600000381469727
307.25274627488216,10.399999618530273
308.2828518739625,2.4000000953674316
309.31275933879624,23.799999237060547
310.34246870811512,24.200000762939453
311.37198002066361,16.600000381469727
312.40129331515891,11
313.43040863031638,25.399999618530273
314.45932600484593,33.400001525878906
315.48804547744476,9.8000001907348633
316.51656708679729,6.4000000953674316
317.54489087158618,-6
318.57301687048675,15.199999809265137
319.60094512215619,12
320.62867566524437,20
321.65620853840483,-1.2000000476837158
322.68354378026197,6
323.71068142945296,0.60000002384185791
324.73762152458949,-3.2000000476837158
325.76436410428141,-2.2000000476837158
326.79090920712588,8.6000003814697266
327.81725687171638,6.5999999046325684
328.84340713663732,-1.6000000238418579
329.86936004045674,-19
330.8951156217463,3.7999999523162842
331.92067391905039,-6
332.9460349709243,-8.6000003814697266
333.97119881590334,9.8000001907348633
334.99616549251732,-1
336.02093503928518,15.399999618530273
337.04550749471673,7.8000001907348633
338.06988289731453,0.40000000596046448
339.09406128557566,-6.8000001907348633
340.11804269798085,17.200000762939453
341.14182717300719,6.1999998092651367
342.16541474912265,-1.7999999523162842
343.18880546478249,-1.3999999761581421
344.21199935844015,-10.800000190734863
345.23499646853088,-2
346.25779683349174,-5.1999998092651367
347.2804004917416,5.5999999046325684
348.30280748169571,-16.200000762939453
349.3250178417602,14.399999618530273
350.34703161032849,-1.2000000476837158
351.36884882579034,-10.199999809265137
352.39046952652461,14.199999809265137
353.41189375090107,-7
354.43312153727675,-5.8000001907348633
355.45415292401049,-6.5999999046325684
356.47498794944113,5
357.49562665190388,-15.600000381469727
358.51606906973029,2
359.53631524122466,7.8000001907348633
360.55636520471126,-11
361.576218998478,3.7999999523162842
362.59587666081825,10.199999809265137
363.6153382300181,2.7999999523162842
364.63460374434362,-0.40000000596046448
365.65367324206454,4
366.67254676143239,11.600000381469727
367.69122434069686,18
368.70970601810041,16.200000762939453
369.7279918318618,-6.4000000953674316
370.74608182021075,-6
371.7639760213533,2.5999999046325684
372.78167447349733,-4.1999998092651367
373.79917721483071,0.20000000298023224
374.81648428354674,-1.7999999523162842
375.8335957178133,-8.6000003814697266
376.85051155580732,7.4000000953674316
377.86723183568211,-2
378.88375659558915,1.2000000476837158
379.90008587367265,7.5999999046325684
380.91621970806045,-6.5999999046325684
381.932158136884,-24
382.94790119825484,-0.60000002384185791
383.96344893028072,14.800000190734863
384.97880137105676,-3.5999999046325684
385.99395855867624,6.8000001907348633
387.0089205312197,-1.7999999523162842
388.02368732675495,-10.600000381469727
389.03825898334981,12.399999618530273
390.05263553905752,-10.199999809265137
391.06681703192226,-16.799999237060547
392.08080349998454,5.8000001907348633
393.09459498126671,-7.5999999046325684
394.10819151379292,-22.600000381469727
395.12159313558004,-0.40000000596046448
396.13479988461768,-17.200000762939453
397.14781179890815,-15.399999618530273
398.16062891643014,-3.5999999046325684
399.17325127516779,2.2000000476837158
400.18567891308157,3.7999999523162842
401.19791186813563,11.600000381469727
402.20995017827954,-3.5999999046325684
403.22179388145014,20.600000381469727
404.23344301558427,-11
405.24489761860423,1
406.256157728425,3.2000000476837158
407.26722338295986,-4.1999998092651367
408.27809462009827,0.800000011920929
409.28877147773528,5.8000001907348633
410.29925399374588,1.7999999523162842
411.30954220601052,-4.4000000953674316
412.31963615238783,0
413.3295358707328,-3.5999999046325684
414.33924139889314,10.800000190734863
415.348752774702,10
416.35807003599439,3.7999999523162842
417.36719322058889,0.60000002384185791
418.3761223662932,-7.8000001907348633
419.38485751091685,10
420.39339869224932,-8.1999998092651367
421.4017459480765,-7.1999998092651367
422.4098993161806,7.5999999046325684
423.41785883432567,-2
424.42562454027211,16
425.43319647177304,-1.6000000238418579
426.44057466656886,-10.800000190734863
427.44775916239269,2.7999999523162842
428.45474999697581,4.8000001907348633
429.46154720802588,10
430.46815083326146,-7.4000000953674316
431.474560910372,14
432.48077747705611,-5.1999998092651367
433.48680057099773,10.600000381469727
434.4926302298627,-4
435.49826649132046,1.3999999761581421
436.50370939302593,5.4000000953674316
437.50895897263217,13.600000381469727
438.5140152677759,22.399999618530273
439.51887831608292,-19
440.52354815518265,2.2000000476837158
441.52802482268817,-18.600000381469727
442.532308356198,17.799999237060547
443.53639879331604,9
444.54029617162814,3
445.54400052871461,6.5999999046325684
446.54751190214483,6.1999998092651367
447.55083032947732,-0.800000011920929
448.553955848276,-5.5999999046325684
449.55688849607577,5.1999998092651367
450.55962831042052,20.600000381469727
451.56217532883238,-3.4000000953674316
452.56452958883892,8.6000003814697266
453.56669112794589,8.1999998092651367
454.56865998365174,3
455.57043619345859,5
456.57201979484853,5.5999999046325684
457.57341082529638,15.199999809265137
458.57460932227514,-21.200000762939453
459.57561532323962,12.399999618530273
460.57642886564281,13.199999809265137
461.57704998692861,-8.1999998092651367
462.57747872453183,8.6000003814697266
463.57771511587816,15.199999809265137
464.57775919838059,-1.7999999523162842
465.5776110094539,23.600000381469727
466.57727058649289,13.199999809265137
467.57673796689414,11.600000381469727
468.5760131880379,0
469.57509628729895,2.4000000953674316
470.57398730204477,11.199999809265137
471.57268626963196,24
472.57119322740982,12.600000381469727
473.56950821272039,8.3999996185302734
474.56763126289479,1.7999999523162842
475.56556241525323,12
476.56330170711954,3.2000000476837158
477.5608491757921,4.5999999046325684
478.55820485857475,-2.4000000953674316
479.55536879275314,-3
480.55234101561109,-3.7999999523162842
481.54912156442151,29
482.54571047644822,-2.5999999046325684
483.54210778894412,16.600000381469727
484.5383135391603,0
485.53432776433874,2
486.53015050170507,18.399999618530273
487.52578178848125,14.199999809265137
488.521221661882,1.7999999523162842
489.51647015911294,0
490.511527317376,3
491.50639317384957,17.799999237060547
492.50106776571556,1
493.49555113015049,5.4000000953674316
494.48984330431631,2
495.48394432536406,7.4000000953674316
496.477854230443,-1.3999999761581421
497.47157305668588,5
498.46510084122747,-6.1999998092651367
499.45843762119148,20.200000762939453
500.45158343368166,23.399999618530273
501.44453831580358,2
502.43730230465735,-5.8000001907348633
503.4298754373267,11.800000190734863
504.42225775089173,-7.5999999046325684
505.41444928242527,-2.7999999523162842
506.40645006898194,11
507.39826014762366,2.7999999523162842
508.38987955538869,10.800000190734863
509.38130832932075,28.399999618530273
510.3725465064399,-0.800000011920929
511.36359412377169,5.4000000953674316
512.35445121832345,16
513.345117827108,-9
514.33559398710713,12.399999618530273
515.32587973531554,6.8000001907348633
516.31597510870961,15.399999618530273
517.305880144253,17.200000762939453
518.29559487891856,5.5999999046325684
519.2851193496499,-2.7999999523162842
520.27445359339254,9.6000003814697266
521.2635976470865,17.200000762939453
522.25255154765728,4.1999998092651367
523.24131533202308,5
524.22988903709665,14.800000190734863
525.21827269978348,-3.7999999523162842
526.20646635697267,15.399999618530273
527.19447004554968,12.399999618530273
528.18228380239634,-16.799999237060547
529.16990766437993,7.8000001907348633
530.15734166836046,6.4000000953674316
531.14458585119428,-12.800000190734863
532.13164024971957,-2
533.11850490077813,16.399999618530273
534.1051798411936,-3.2000000476837158
535.09166510778778,8.6000003814697266
536.0779607373679,26.799999237060547
537.06406676674123,-1.7999999523162842
538.04998323269865,17.799999237060547
539.03571017202739,2.2000000476837158
540.02124762150379,10
541.00659561790053,1.6000000238418579
541.99175419797393,6.1999998092651367
542.97672339848032,5
543.96150325615963,13.600000381469727
544.94609380775364,1
545.93049508998593,13.199999809265137
546.91470713957824,14.800000190734863
547.89872999324143,-8
548.88256368767543,5.5999999046325684
549.86620825957834,6.5999999046325684
550.84966374563555,1.3999999761581421
551.83293018252334,28.200000762939453
552.81600760691072,-5.5999999046325684
553.79889605546123,24.799999237060547
554.78159556482933,-10.199999809265137
555.76410617165857,18
556.74642791258339,34.799999237060547
557.72856082423277,7.8000001907348633
558.71050494323026,6.4000000953674316
559.692260306183,12.199999809265137
560.67382694969274,14.199999809265137
561.65520491036477,2.2000000476837158
562.63639422477536,2.2000000476837158
563.617394929508,11
564.59820706113169,20.600000381469727
565.5788306562099,2.5999999046325684
566.55926575129524,14
567.53951238293848,11.399999618530273
568.51957058766675,10.800000190734863
569.49944040201626,3.5999999046325684
570.47912186250869,15.399999618530273
571.45861500565115,4.8000001907348633
572.43791986795441,1.7999999523162842
573.417036485911,2.7999999523162842
574.3959648960099,-1.7999999523162842
575.37470513472908,6.8000001907348633
576.35325723854476,-2.7999999523162842
577.3316212439131,13
578.309797187294,9.1999998092651367
579.28778510513439,12.199999809265137
580.26558503387241,27.200000762939453
581.24319700993874,-4.8000001907348633
582.22062106975318,22.600000381469727
583.1978572497319,8
584.17490558627833,0.60000002384185791
585.15176611579591,21
586.12843887466624,7
587.1049238992764,16.399999618530273
588.08122122599343,24
589.05733089119167,10.399999618530273
590.03325293122,10.800000190734863
591.00898738242722,8
591.98453428115681,18.600000381469727
592.95989366373578,10
593.93506556649481,19.399999618530273
594.91005002574457,12.399999618530273
595.88484707779207,1.2000000476837158
596.85945675894072,14.199999809265137
597.83387910547935,25.200000762939453
598.808114153695,17.799999237060547
599.78216193985281,-13.600000381469727
600.7560225002253,21
601.729695871074,16.600000381469727
602.70318208864228,28.399999618530273
603.67648118917714,3
604.64959320891285,-7.8000001907348633
605.62251818407458,10
606.59525615087659,7
607.56780714553315,14.600000381469727
608.54017120424214,20.200000762939453
609.51234836320145,8.8000001907348633
610.48433865859079,4.8000001907348633
611.45614212658984,-10.399999618530273
612.42775880336558,13
613.39918872508315,-9.6000003814697266
614.37043192788951,15.800000190734863
615.34148844793526,7.4000000953674316
616.31235832134917,10.800000190734863
617.28304158426727,10
618.253538272802,28
619.2238484230711,2.4000000953674316
620.19397207117981,23
621.16390925321321,3
622.13366000527276,24.799999237060547
623.103224363429,6.5999999046325684
624.07260236375441,19.799999237060547
625.04179404231763,19.600000381469727
626.01079943516561,9.6000003814697266
626.97961857835253,9.1999998092651367
627.94825150791621,23.799999237060547
628.91669825988356,2.2000000476837158
629.8849588702833,13.800000190734863
630.85303337512414,10.399999618530273
631.8209218104148,-0.60000002384185791
632.7886242121549,-6.8000001907348633
633.75614061633678,18.399999618530273
634.72347105893823,23
635.69061557593523,9.1999998092651367
636.65757420329646,16.600000381469727
637.6243469769779,-0.800000011920929
638.59093393293,24.399999618530273
639.55733510709615,16.600000381469727
640.5235505354085,7.4000000953674316
641.48958025379216,4
642.45542429816669,14.199999809265137
643.4210827044426,17.600000381469727
644.38655550851945,11.800000190734863
645.351842746295,9.1999998092651367
646.31694445364883,19.200000762939453
647.28186066646231,6
648.24659142060591,13
649.21113675193737,27.799999237060547
650.17549669631444,18.799999237060547
651.13967128958211,12.399999618530273
652.10366056757266,5.4000000953674316
653.067464566122,8.8000001907348633
654.03108332104784,16.200000762939453
654.99451686816428,30.200000762939453
655.95776524327266,7.8000001907348633
656.920828482178,11.600000381469727
657.88370662066518,11.600000381469727
658.84639969451382,20
659.80890773950159,20.799999237060547
660.77123079139164,-11.199999809265137
661.733368885938,20.799999237060547
662.69532205889118,12.199999809265137
663.65709034599786,18.200000762939453
664.61867378298484,0.20000000298023224
665.58007240558072,9.8000001907348633
666.54128624949954,26.200000762939453
667.50231535045532,12.399999618530273
668.46315974414392,17.399999618530273
669.42381946626119,-0.20000000298023224
670.38429455249025,14.800000190734863
671.34458503851238,7.5999999046325684
672.30469095999615,17
673.2646123525974,22.799999237060547
674.224349251972,23.799999237060547
675.18390169377017,-0.800000011920929
676.14326971362243,7.8000001907348633
677.10245334716274,15
678.0614526300069,10.399999618530273
679.02026759777618,24.200000762939453
679.97889828607,17.600000381469727
680.93734473048789,10.399999618530273
681.89560696662011,-3.4000000953674316
682.85368503004611,19.799999237060547
683.81157895634169,11.199999809265137
684.76928878106992,-16.200000762939453
