-777.87311982425126,13.800000190734863
-776.63374739947358,13.399999618530273
-775.39461482227671,6.8000001907348633
-774.15572204389719,6
-772.91706901559337,1.3999999761581421
-771.67865568863454,9.1999998092651367
-770.44048201429,1.3999999761581421
-769.20254794384346,17
-767.96485342860433,21.399999618530273
-766.7273984198855,11.800000190734863
-765.49018286900719,16
-764.25320672730777,0.20000000298023224
-763.01646994613657,26.200000762939453
-761.77997247685744,-6.5999999046325684
-760.5437142708488,12.199999809265137
-759.307695279489,12.199999809265137
-758.07191545417118,11.399999618530273
-756.83637474631723,13.199999809265137
-755.601073107342,12.800000190734863
-754.36601048868215,19
-753.13118684178153,12
-751.89660211810587,9.3999996185302734
-750.66225626912092,13.399999618530273
-749.42814924630693,7.1999998092651367
-748.19428100116238,13.800000190734863
-746.960651485193,7.4000000953674316
-745.72726064991912,13.600000381469727
-744.49410844686827,18.799999237060547
-743.26119482758622,2.2000000476837158
-742.02851974362966,13.800000190734863
-740.79608314656616,5
-739.5638849879706,13
-738.331925219436,6.8000001907348633
-737.10020379257367,19.600000381469727
-735.86872065898388,1.7999999523162842
-734.63747577031063,15
-733.406469078187,13.600000381469727
-732.17570053426061,6.5999999046325684
-730.94517009020092,8.3999996185302734
-729.71487769768464,5.8000001907348633
-728.48482330838851,21
-727.25500687402564,17.200000762939453
-726.02542834630549,6.4000000953674316
-724.79608767694481,14.800000190734863
-723.56698481768581,8
-722.33811972027434,8.1999998092651367
-721.10949233647079,-2.4000000953674316
-719.88110261805014,13.600000381469727
-718.652950516791,-3.5999999046325684
-717.42503598449366,-8
-716.19735897296232,4.4000000953674316
-714.96991943401918,10
-713.74271731949739,11.199999809265137
-712.515752581241,3.7999999523162842
-711.28902517110146,22.399999618530273
-710.06253504095184,8.8000001907348633
-708.83628214267264,2.7999999523162842
-707.610266428148,24.399999618530273
-706.384487849291,17.399999618530273
-705.15894635801124,-0.800000011920929
-703.93364190623652,9
-702.70857444590911,7.1999998092651367
-701.48374392898586,9.3999996185302734
-700.25915030741635,3.5999999046325684
-699.03479353318289,0.40000000596046448
-697.81067355827872,17.399999618530273
-696.58679033470071,16.200000762939453
-695.36314381444936,13.600000381469727
-694.1397339495652,6
-692.91656069207056,20
-691.69362399401689,21.600000381469727
-690.47092380745926,6.4000000953674316
-689.24846008447821,21.799999237060547
-688.02623277714338,7.4000000953674316
-686.80424183756077,4.5999999046325684
-685.58248721782911,17.200000762939453
-684.360968870069,19.600000381469727
-683.13968674641546,24.200000762939453
-681.91864079900733,18.399999618530273
-680.69783097999425,4.4000000953674316
-679.4772572415477,6.8000001907348633
-678.25691953584283,1.6000000238418579
-677.0368178150693,13.399999618530273
-675.81695203143136,17.600000381469727
-674.59732213714051,10.199999809265137
-673.37792808442282,0.60000002384185791
-672.15876982551163,23
-670.9398473126621,4.5999999046325684
-669.72116049812939,-1.7999999523162842
-668.50270933419051,2.7999999523162842
-667.28449377312245,22.600000381469727
-666.0665137672313,12.600000381469727
-664.84876926881952,16.600000381469727
-663.63126023020413,7.5999999046325684
-662.413986603724,13.800000190734863
-661.19694834172151,6.1999998092651367
-659.9801453965465,11.399999618530273
-658.76357772057054,9.1999998092651367
-657.54724526617247,26.799999237060547
-656.33114798573843,3.4000000953674316
-655.11528583168,21.200000762939453
-653.89965875640155,1.6000000238418579
-652.68426671233283,31.799999237060547
-651.46910965191455,9.6000003814697266
-650.25418752759469,5.5999999046325684
-649.03950029183216,7
-647.825047897104,19.600000381469727
-646.61083029589463,14
-645.39684744069928,12.399999618530273
-644.18309928402778,16.200000762939453
-642.96958577839359,3.4000000953674316
-641.75630687633929,9.6000003814697266
-640.54326253040745,8.6000003814697266
-639.33045269314425,29.600000381469727
-638.117877317125,1.6000000238418579
-636.90553635492142,3
-635.69342975913059,13.800000190734863
-634.481557482357,9
-633.26991947720853,11.399999618530273
-632.05851569631523,-7.1999998092651367
-630.84734609231418,13.800000190734863
-629.63641061784983,17
-628.4257092255848,4.8000001907348633
-627.21524186819988,5
-626.00500849836862,6.4000000953674316
-624.79500906879366,33.200000762939453
-623.58524353217763,-3.2000000476837158
-622.37571184124863,5.5999999046325684
-621.1664139487275,20
-619.95734980736415,4.1999998092651367
-618.74851936991581,14.800000190734863
-617.539922589136,31.200000762939453
-616.33155941781479,-4.4000000953674316
-615.12342980873473,22
-613.91553371470036,18.600000381469727
-612.70787108852346,1.7999999523162842
-611.50044188302672,8.1999998092651367
-610.29324605104739,7.4000000953674316
-609.08628354543725,17
-607.87955431905175,-3.2000000476837158
-606.67305832475722,16
-605.46679551544912,13.800000190734863
-604.26076584400835,20
-603.05496926335218,5.5999999046325684
-601.849405726387,-5.4000000953674316
-600.64407518604821,26.399999618530273
-599.438977595275,13.800000190734863
-598.234112907021,16
-597.02948107425073,17
-595.82508204993974,5.4000000953674316
-594.62091578707441,13.600000381469727
-593.41698223864842,-12
-592.21328135768454,29.600000381469727
-591.009813097191,1
-589.80657741020877,14
-588.60357424978247,20.600000381469727
-587.4008035689676,3
-586.19826532083425,29.600000381469727
-584.99595945845977,5.5999999046325684
-583.793885934936,13.199999809265137
-582.5920447033659,23.799999237060547
-581.39043571686307,0.20000000298023224
-580.18905892855764,16.200000762939453
-578.98791429158518,10.199999809265137
-577.78700175909034,19.200000762939453
-576.58632128423778,11.800000190734863
-575.38587282020308,12
-574.1856563201618,2.5999999046325684
-572.98567173731681,-0.800000011920929
-571.78591902487278,0
-570.58639813603986,19.399999618530273
-569.38710902406274,13.199999809265137
-568.18805164217156,19.399999618530273
-566.98922594362557,6.1999998092651367
-565.790631881684,1.7999999523162842
-564.59226940962253,1.3999999761581421
-563.39413848073127,3.7999999523162842
-562.19623904831133,4.8000001907348633
-560.99857106566742,19
-559.80113448612792,4.5999999046325684
-558.60392926301938,2.4000000953674316
-557.40695534968654,15.399999618530273
-556.21021269949415,-0.800000011920929
-555.0137012658015,13.600000381469727
-553.81742100199153,7.8000001907348633
-552.62137186145628,5.1999998092651367
-551.4255537975896,6
-550.22996676381626,3.4000000953674316
-549.03461071355377,8.1999998092651367
-547.8394856002451,23.600000381469727
-546.64459137733138,1.3999999761581421
-545.449927998272,11.600000381469727
-544.25549541654073,26.799999237060547
-543.06129358562066,9
-541.86732245900566,23.600000381469727
-540.67358199019873,5.5999999046325684
-539.48007213271376,4.8000001907348633
-538.28679284007922,2.4000000953674316
-537.09374406584539,12.600000381469727
-535.900925763548,3.5999999046325684
-534.70833788675736,11.199999809265137
-533.51598038904558,17.799999237060547
-532.32385322399932,3.7999999523162842
-531.13195634520889,7.4000000953674316
-529.94028970629006,7.5999999046325684
-528.74885326085314,12.399999618530273
-527.55764696253573,4.4000000953674316
-526.36667076497724,-5.1999998092651367
-525.17592462183165,6.4000000953674316
-523.985408486762,18.200000762939453
-522.79512231344415,1
-521.60506605556839,-0.60000002384185791
-520.41523966682871,8.1999998092651367
-519.22564310093912,-5.8000001907348633
-518.0362763116209,12.800000190734863
-516.84713925260257,13
-515.65823187763453,7.4000000953674316
-514.46955414046715,18.600000381469727
-513.28110599486718,6.4000000953674316
-512.09288739461954,20.200000762939453
-510.90489829350736,10.399999618530273
-509.71713864533194,3.2000000476837158
-508.52960840390369,7.5999999046325684
-507.3423075230512,10.600000381469727
-506.15523595660488,15.399999618530273
-504.96839365841697,8.3999996185302734
-503.78178058233607,8.6000003814697266
-502.59539668223624,18.600000381469727
-501.4092419119952,1
-500.223316225507,13.800000190734863
-499.0376195766712,13.199999809265137
-497.85215191940188,10.199999809265137
-496.666913207624,13.399999618530273
-495.48190339527719,9.6000003814697266
-494.29712243630638,9.3999996185302734
-493.11257028467116,5.8000001907348633
-491.928246894342,-2.5999999046325684
-490.7441522193003,22
-489.56028621353471,7.5999999046325684
-488.37664883105754,21.200000762939453
-487.19324002587746,-6.5999999046325684
-486.01005975202315,5
-484.8271079635324,13.600000381469727
-483.6443846144557,13
-482.46188965885085,-5.8000001907348633
-481.27962305079018,17.600000381469727
-480.09758474435512,21.200000762939453
-478.91577469364165,0
-477.73419285275304,-0.800000011920929
-476.55283917580709,1.3999999761581421
-475.37171361693436,7.4000000953674316
-474.19081613026719,1.6000000238418579
-473.010146669958,14.199999809265137
-471.82970519017181,0.60000002384185791
-470.64949164507379,3.4000000953674316
-469.46950598885633,9
-468.28974817570452,13
-467.1102181598344,6
-465.93091589545475,16
-464.75184133679977,5.4000000953674316
-463.57299443810552,10.800000190734863
-462.39437515362624,13.800000190734863
-461.2159834376198,9.8000001907348633
-460.03781924436043,23.399999618530273
-458.85988252813513,10.800000190734863
-457.68217324323632,17.799999237060547
-456.50469134396917,7.8000001907348633
-455.32743678465886,20.200000762939453
-454.15040951962692,12.399999618530273
-452.97360950321672,3
-451.79703668977709,17.200000762939453
-450.62069103367321,10.800000190734863
-449.4445724892721,13.600000381469727
-448.26868101096989,10
-447.09301655315357,3.7999999523162842
-445.9175790702302,7.1999998092651367
-444.74236851661954,12.199999809265137
-443.56738484675407,20.200000762939453
-442.39262801506811,13.199999809265137
-441.21809797601236,-2.7999999523162842
-440.0437946840575,15
-438.86971809366878,13.199999809265137
-437.69586815933872,21
-436.52224483555256,5.8000001907348633
-435.34884807682647,6.1999998092651367
-434.17567783767481,-2.5999999046325684
-433.00273407262466,6.5999999046325684
-431.83001673621948,10.800000190734863
-430.65752578300453,9.8000001907348633
-429.4852611675542,2.5999999046325684
-428.31322284443013,20.200000762939453
-427.14141076821943,7.4000000953674316
-425.96982489351649,17.200000762939453
-424.79846517493388,2.5999999046325684
-423.62733156708055,5.8000001907348633
-422.45642402459453,5.4000000953674316
-421.28574250211022,13.399999618530273
-420.1152869542766,5.5999999046325684
-418.94505733575534,7
-417.77505360122632,1.3999999761581421
-416.60527570536397,1.2000000476837158
-415.43572360287,-0.40000000596046448
-414.26639724844608,2.4000000953674316
-413.09729659681216,-2.2000000476837158
-411.92842160268992,22.799999237060547
-410.7597722208302,6.4000000953674316
-409.59134840596926,7.1999998092651367
-408.42315011287792,0.20000000298023224
-407.2551772963252,14.399999618530273
-406.087429911091,-14
-404.9199079119735,4.5999999046325684
-403.75261125377619,30.799999237060547
-402.58553989131542,3.7999999523162842
-401.41869377941293,15.600000381469727
-400.25207287291232,2
-399.08567712666627,15
-397.919506495522,0.20000000298023224
-396.75356093436312,13.800000190734863
-395.58784039806596,9
-394.42234484151959,6.1999998092651367
-393.25707421963307,11
-392.09202848732275,-0.20000000298023224
-390.92720759950862,17
-389.76261151112521,13
-388.59824017713072,3.5999999046325684
-387.43409355247422,15.600000381469727
-386.27017159212846,1
-385.10647425107527,-1.2000000476837158
-383.94300148430193,4.1999998092651367
-382.77975324681393,11
-381.616729493624,28
-380.453930179754,1
-379.29135526024038,0.800000011920929
-378.129004690134,6.4000000953674316
-376.96687842448227,9.3999996185302734
-375.80497641835791,-2.7999999523162842
-374.64329862683917,3.5999999046325684
-373.4818450050152,3.2000000476837158
-372.32061550798426,27.399999618530273
-371.15961009086277,14.399999618530273
-369.99882870877082,20
-368.83827131683756,-0.60000002384185791
-367.677937870214,6
-366.51782832404751,0.20000000298023224
-365.3579426335109,7.4000000953674316
-364.19828075377518,10.399999618530273
-363.03884264003136,2.4000000953674316
-361.87962824747046,1.6000000238418579
-360.7206375313126,13.600000381469727
-359.56187044677063,0.40000000596046448
-358.403326949081,9.3999996185302734
-357.24500699348027,-3.5999999046325684
-356.08691053522307,5.1999998092651367
-354.92903752956954,0.60000002384185791
-353.771387931798,2.5999999046325684
-352.61396169719228,16.399999618530273
-351.45675878105067,-1.2000000476837158
-350.29977913867333,11.800000190734863
-349.14302272538407,19
-347.98648949651215,7.4000000953674316
-346.83017940739046,11.399999618530273
-345.67409241337191,10.399999618530273
-344.51822846982031,2.5999999046325684
-343.36258753210313,3.2000000476837158
-342.20716955560965,9.1999998092651367
-341.05197449572188,7
-339.89700230785638,2.5999999046325684
-338.74225294741518,15.399999618530273
-337.58772636983667,4.8000001907348633
-336.43342253054652,9.1999998092651367
-335.27934138499768,0.20000000298023224
-334.12548288865037,21
-332.97184699696481,4.1999998092651367
-331.81843366542853,8.6000003814697266
-330.66524284953266,6.5999999046325684
-329.51227450476654,7.5999999046325684
-328.35952858665769,28
-327.20700505071909,5.1999998092651367
-326.05470385248555,-1
-324.90262494750459,24.600000381469727
-323.75076829132558,6.1999998092651367
-322.59913383951789,19.799999237060547
-321.44772154765633,-13.800000190734863
-320.29653137132846,-16.399999618530273
-319.14556326613092,9.1999998092651367
-317.99481718767311,12
-316.84429309157531,26
-315.69399093346874,-12.399999618530273
-314.54391066899007,22.200000762939453
-313.39405225379596,12
-312.24441564354129,6.1999998092651367
-311.09500079390455,20
-309.94580766056788,6.5999999046325684
-308.79683619922253,16.600000381469727
-307.64808636558337,4.1999998092651367
-306.49955811535619,11.800000190734863
-305.35125140426862,19.200000762939453
-304.203166188061,7.4000000953674316
-303.05530242247733,4.4000000953674316
-301.90766006327794,5.8000001907348633
-300.76023906623413,-14.800000190734863
-299.61303938712081,20.200000762939453
-298.46606098173288,9.1999998092651367
-297.31930380586527,16.799999237060547
-296.17276781533837,8.3999996185302734
-295.02645296596893,16.200000762939453
-293.88035921359551,0
-292.73448651404942,29.399999618530273
-291.58883482319834,10.600000381469727
-290.44340409690449,12.600000381469727
-289.29819429103554,8
-288.15320536148647,21.200000762939453
-287.0084372641486,14.800000190734863
-285.86388995493689,4.4000000953674316
-284.7195633897627,-3.2000000476837158
-283.57545752455371,0.800000011920929
-282.431572315254,25.600000381469727
-281.28790771781496,37.400001525878906
-280.1444636881879,25.399999618530273
-279.00124018235692,9.1999998092651367
-277.8582371562934,17.799999237060547
-276.71545456599597,5.5999999046325684
-275.57289236746692,15.399999618530273
-274.43055051671945,4.5999999046325684
-273.28842896977221,37.599998474121094
-272.14652768267115,9
-271.00484661145128,6
-269.86338571217493,4.8000001907348633
-268.72214494090622,-2.2000000476837158
-267.581124253722,7.4000000953674316
-266.44032360671372,14.800000190734863
-265.29974295597458,12.199999809265137
-264.159382257616,16.200000762939453
-263.01924146776037,5
-261.87932054252815,11
-260.73961943807444,5.1999998092651367
-259.60013811053796,34.599998474121094
-258.46087651608468,18.399999618530273
-257.32183461088971,17.200000762939453
-256.18301235113358,27.799999237060547
-255.04440969300595,-4.5999999046325684
-253.90602659271462,22.600000381469727
-252.76786300647473,22
-251.62991889051045,3.4000000953674316
-250.49219420105146,22
-249.35468889435288,19.399999618530273
-248.217402926668,22.600000381469727
-247.08033625425924,7.5999999046325684
-245.94348883341445,52.799999237060547
-244.80686062040877,7.4000000953674316
-243.67045157154826,16
-242.53426164314442,14
-241.39829079150877,19.799999237060547
-240.26253897297829,8.6000003814697266
-239.12700614388814,23.399999618530273
-237.99169226059348,9.6000003814697266
-236.85659727945676,16.200000762939453
-235.72172115684771,15
-234.58706384914331,25.200000762939453
-233.4526253127442,35.400001525878906
-232.31840550405468,27.200000762939453
-231.18440437947902,11.199999809265137
-230.05062189545242,29.600000381469727
-228.91705800840282,30.399999618530273
-227.78371267477996,31
-226.65058585103725,18.399999618530273
-225.51767749363898,27.399999618530273
-224.38498755906403,23
-223.2525160037967,16.200000762939453
-222.1202627843395,22
-220.98822785719858,16.600000381469727
-219.85641117888918,33.599998474121094
-218.7248127059429,17.600000381469727
-217.59343239489681,33.400001525878906
-216.46227020230072,32.400001525878906
-215.3313260847226,25
-214.20059999872137,46
-213.07009190087956,20.200000762939453
-211.9398017477979,30.600000381469727
-210.80972949606621,27
-209.67987510230523,33.400001525878906
-208.5502385231357,31.600000381469727
-207.42081971518564,25
-206.29161863510308,27.600000381469727
-205.16263523954149,34
-204.03386948516163,41.599998474121094
-202.90532132864428,21.200000762939453
-201.77699072666474,43.400001525878906
-200.64887763592742,42.799999237060547
-199.52098201313311,38.599998474121094
-198.39330381500076,47
-197.26584299825117,36
-196.13859951962695,33
-195.01157333587253,61.200000762939453
-193.88476440374143,42.200000762939453
-192.75817268001083,43.200000762939453
-191.63179812144881,75.199996948242188
-190.50564068485255,68.800003051757813
-189.3797003270156,70.4000015258789
-188.25397700474423,72.800003051757813
-187.12847067486291,74.4000015258789
-186.00318129420339,81.199996948242188
-184.87810881960104,98.4000015258789
-183.75325320790944,85.199996948242188
-182.62861441598398,104.59999847412109
-181.50419240070187,110.59999847412109
-180.37998711894033,108.40000152587891
-179.25599852759296,132.60000610351563
-178.13222658356062,106.19999694824219
-177.00867124376236,131.39999389648438
-175.88533246510815,153.19999694824219
-174.76221020454068,150.39999389648438
-173.63930441900084,137.19999694824219
-172.51661506544224,147
-171.39414210082759,159.60000610351563
-170.27188548212871,169.39999389648438
-169.14984516633558,173.60000610351563
-168.02802111043638,166.60000610351563
-166.90641327144112,162.80000305175781
-165.78502160636344,194
-164.66384607223154,176.39999389648438
-163.54288662607541,207.80000305175781
-162.4221432249451,196.60000610351563
-161.30161582589426,194.39999389648438
-160.18130438598928,196.60000610351563
-159.06120886230929,199.60000610351563
-157.94132921194432,211.80000305175781
-156.82166539198624,176.80000305175781
-155.70221735953965,207
-154.58298507173095,206.80000305175781
-153.46396848568111,194.39999389648438
-152.34516755853474,207
-151.22658224743282,238
-150.10821250953813,205.19999694824219
-148.99005830202077,222.60000610351563
-147.87211958205626,215
-146.75439630683832,241
-145.63688843355885,254
-144.51959591943705,254.80000305175781
-143.40251872168847,258
-142.28565679753956,282.39999389648438
-141.16901010423499,278
-140.05257859902849,289.20001220703125
-138.93636223917383,314.39999389648438
-137.82036098194294,306.39999389648438
-136.70457478462595,326
-135.58900360449843,338.39999389648438
-134.47364739887416,327.79998779296875
-133.35850612506329,323.79998779296875
-132.24357974038321,323.20001220703125
-131.12886820217136,334.20001220703125
-130.01437146776334,344
-128.90008949451476,323.39999389648438
-127.78602223979033,339
-126.67216966095839,335.79998779296875
-125.55853171540366,304.79998779296875
-124.44510836051813,302.39999389648438
-123.33189955371017,312.39999389648438
-122.2189052523845,298.39999389648438
-121.10612541397313,292.39999389648438
-119.9935599959008,266.60000610351563
-118.88120895561769,273
-117.76907225057403,263.60000610351563
-116.65714983823818,275.79998779296875
-115.54544167607855,276.20001220703125
-114.43394772158354,293.60000610351563
-113.32266793224335,261
-112.21160226556458,277.79998779296875
-111.10075067906291,316
-109.99011313026131,284
-108.87968957669545,309.60000610351563
-107.76947997590833,347.60000610351563
-106.65948428545926,351.79998779296875
-105.54970246290759,389.20001220703125
-104.44013446582903,357
-103.33078025181567,417.79998779296875
-102.22163977845048,403.79998779296875
-101.11271300335284,466.20001220703125
-100.00399988412755,495
-98.8955003784049,557
-97.787214443818812,593
-96.679142038015925,697.4000244140625
-95.571283118651991,692.20001220703125
-94.46363764339003,688
-93.356205569909434,687.5999755859375
-92.248986855895055,680.5999755859375
-91.141981459042654,725.5999755859375
-90.035189337055272,798.5999755859375
-88.928610447654137,759.79998779296875
-87.8222447485623,736
-86.716092197515536,681.20001220703125
-85.610152752264185,643.79998779296875
-84.504426370558576,608.20001220703125
-83.3989130101636,638.20001220703125
-82.29361262886232,617
-81.188525184439641,554.5999755859375
-80.083650634691367,578.79998779296875
-78.978988937416943,594.5999755859375
-77.8745400504431,589.5999755859375
-76.7703039315893,619.4000244140625
-75.666280538693172,637.4000244140625
-74.56246982959965,687.20001220703125
-73.45887176217002,682.5999755859375
-72.355486294265575,732.79998779296875
-71.2523133837658,798.4000244140625
-70.149352988557439,817.4000244140625
-69.046605066534539,859.4000244140625
-67.944069575602043,902
-66.84174647367945,963.20001220703125
-65.739635718693535,1023.2000122070313
-64.63773726857471,1135.800048828125
-63.5360510812734,1252.199951171875
-62.434577114750937,1474.4000244140625
-61.3333153269632,1767.800048828125
-60.232265675895178,2138.60009765625
-59.131428119522752,2583.60009765625
-58.030802615854554,3145.800048828125
-56.930389122886481,3598.39990234375
-55.830187598636257,3851.199951171875
-54.730198001132521,3842
-53.630420288413006,3933.199951171875
-52.530854418515446,4286
-51.431500349504859,5473.39990234375
-50.332358039440805,7470
-49.233427446402857,8931.2001953125
-48.134708528470583,9283.599609375
-47.036201243741743,8519.7998046875
-45.937905550323194,6809
-44.839821406334522,5392.39990234375
-43.74194876988804,4377
-42.64428759913244,3555.800048828125
-41.5468378522055,3060.39990234375
-40.449599487265004,2926.60009765625
-39.352572462472381,2815.199951171875
-38.255756736005424,2663.199951171875
-37.159152266047386,2475.199951171875
-36.062759010790614,2194.800048828125
-34.966576928443828,2076.199951171875
-33.8706059772212,2162.39990234375
-32.774846115338732,2781
-31.679297301039696,4344.39990234375
-30.583959492563736,5840.7998046875
-29.488832648166863,6703.39990234375
-28.393916726110547,7002.39990234375
-27.299211684672628,6979
-26.204717482129126,7293.39990234375
-25.110434076774254,7145.7998046875
-24.016361426916774,6459.2001953125
-22.922499490865448,4688.2001953125
-21.828848226945411,2880.800048828125
-20.735407593489072,2122
-19.642177548834297,1778.800048828125
-18.549158051340783,1552.199951171875
-17.456349059368222,1464.5999755859375
-16.363750531281767,1428
-15.271362425470215,1376.199951171875
-14.179184700326005,1399.5999755859375
-13.087217314247027,1359
-11.995460225642091,1433.5999755859375
-10.903913392940012,1420.4000244140625
-9.8125767745696066,1510.800048828125
-8.7214503289651475,1534.199951171875
-7.6305340145827358,1641.4000244140625
-6.5398277898821107,1668.199951171875
-5.4493316133357439,1447.199951171875
-4.3590454434179264,1009.5999755859375
-3.26896923861932,586
-2.1791029574433196,275.79998779296875
-1.0894465583987767,99
-3.637978807091713E-12,97.800003051757813
1.0892367592168739,253.60000610351563
2.1782637607157085,517
3.2670810459494533,1009.7999877929688
4.3556886563619628,1577.800048828125
5.4440866333861777,1852.199951171875
6.5322750184368488,1841.5999755859375
7.6202538529305457,1807
8.7080231782692863,1647
9.7955830358478124,1555.5999755859375
10.882933467048133,1535.4000244140625
11.970074513241343,1485.199951171875
13.0570062157949,1524
14.143728616063527,1568.4000244140625
15.230241755389216,1585.5999755859375
16.316545675103043,1645.5999755859375
17.402640416532449,1737.800048828125
18.488526020995778,1977.199951171875
19.574202529791364,2303.199951171875
20.659669984221182,3087.60009765625
21.744928425567196,4783
22.82997789510955,7024.39990234375
23.914818434106564,8416
24.99945008382565,8882.2001953125
26.083872885503297,8556.7998046875
27.168086880381452,8357.400390625
28.252092109691148,8358.599609375
29.33588861464159,7657
30.419476436449258,6045.39990234375
31.502855616305169,3994.800048828125
32.586026195402155,2893
33.668988214920319,2618.199951171875
34.751741716028846,2698.199951171875
35.834286739884192,3014
36.916623327637353,3350.60009765625
37.998751520428414,3684
39.080671359392,3811.60009765625
40.162382885640909,3965.800048828125
41.243886140291579,4375.2001953125
42.325181164447713,5309.7998046875
43.406267999200281,6633.7998046875
44.4871466856257,8135.39990234375
45.5678172648004,10355.2001953125
46.648279777786229,12481.2001953125
47.72853426563961,12748.7998046875
48.8085807694024,11859.599609375
49.888419330107354,9263.400390625
50.968049988779967,6851.60009765625
52.047472786436629,5796.2001953125
53.126687764075541,5537.60009765625
54.205694962698544,5651.7998046875
55.284494423289289,5521.2001953125
56.363086186827786,5123.2001953125
57.44147029427404,4466.39990234375
58.519646786589874,3684.800048828125
59.597615704718919,3075.800048828125
60.67537708960117,2516.39990234375
61.752930982163889,2173.60009765625
62.83027742332888,1955
63.90741645399612,1735.800048828125
64.984348115074681,1604.5999755859375
66.061072447448169,1514.5999755859375
67.13758949199655,1412.800048828125
68.213899289597975,1337.4000244140625
69.29000188109967,1308
70.36589730736705,1268.5999755859375
71.441585609234608,1211.4000244140625
72.517066827535018,1152.800048828125
73.592341003088222,1119.5999755859375
74.667408176715981,1080
75.742268389207311,1058.800048828125
76.816921681369422,1022.7999877929688
77.891368093980418,1038.5999755859375
78.965607667816585,1029.5999755859375
80.039640443639655,1059.5999755859375
81.113466462209544,1076
82.187085764271615,1104
83.260498390560315,1109.4000244140625
84.333704381804637,1167.199951171875
85.40670377871902,1180.199951171875
86.479496622014267,1258.800048828125
87.552082952388446,1414.4000244140625
88.624462810528712,1498.800048828125
89.6966362371113,1427.199951171875
90.76860327281247,1329.800048828125
91.840363958286616,1264.199951171875
92.911918334189977,1307
93.983266441158776,1323.199951171875
95.054408319829236,1300.4000244140625
96.12534401081939,1305.800048828125
97.19607355474,1161.800048828125
98.2665969922,1061.5999755859375
99.336914363786491,959.4000244140625
100.40702571009024,897
101.47693107168197,845.4000244140625
102.54663048912334,813.4000244140625
103.61612400297781,771.20001220703125
104.68541165378701,773
105.75449348208713,759
106.82336952840706,710
107.89203983326297,704.20001220703125
108.96050443715831,630.20001220703125
110.02876338060378,700.79998779296875
111.09681670407736,682.4000244140625
112.16466444806247,642
113.23230665302981,627.5999755859375
114.2997433594428,620.79998779296875
115.36697460774849,651
116.43400043838665,639
117.50082089179705,638.4000244140625
118.56743600839945,659.5999755859375
119.63384582860272,656
120.70005039281386,698
121.76604974143083,730
122.83184391483519,722.20001220703125
123.89743295340486,738.20001220703125
124.96281689750322,797.79998779296875
126.02799578748636,767
127.09296966370857,794.5999755859375
128.15773856649867,817.79998779296875
129.22230253619455,869.20001220703125
130.28666161311048,840
131.35081583755345,841.20001220703125
132.414765249825,830.79998779296875
133.47850989022481,842
134.54204979901988,825.20001220703125
135.60538501649535,796.79998779296875
136.66851558290364,800.20001220703125
137.73144153850444,797
138.79416292353926,758.4000244140625
139.85667977824414,770.4000244140625
140.91899214284422,739
141.9811000575537,724.4000244140625
143.0430035625759,708.20001220703125
144.10470269811231,691.79998779296875
145.16619750435348,659.79998779296875
146.22748802146998,642.4000244140625
147.28857428963602,664.79998779296875
148.3494563490076,610.79998779296875
149.41013423973891,628.79998779296875
150.47060800196778,613
151.53087767582292,638.4000244140625
152.59094330143125,592.4000244140625
153.65080491890512,627
154.71046256834779,589.79998779296875
155.76991628984433,643.79998779296875
156.82916612349436,616.4000244140625
157.88821210936294,597.79998779296875
158.94705428751695,598
160.00569269801963,630.20001220703125
161.06412738090876,610.4000244140625
162.12235837622939,610.20001220703125
163.18038572400837,600.20001220703125
164.23820946425803,598.4000244140625
165.29582963700341,587.4000244140625
166.35324628222952,572.79998779296875
167.41045943993777,569
168.4674691501059,523.5999755859375
169.52427545270439,528.20001220703125
170.58087838770371,554.79998779296875
171.63727799505432,531.20001220703125
172.6934743146976,491.20001220703125
173.74946738657491,514
174.80525725060761,492.39999389648438
175.86084394671525,470.39999389648438
176.91622751480463,475.20001220703125
177.97140799477529,442
179.02638542651403,413.39999389648438
180.08115984989854,414.79998779296875
181.13573130480836,384
182.1900998310939,380.20001220703125
183.24426546861469,378.60000610351563
184.29822825721203,373
185.35198823671635,328.60000610351563
186.40554544695078,305.39999389648438
187.45889992773846,275.60000610351563
188.51205171887523,273
189.5650008601624,265.60000610351563
190.61774739138855,266.79998779296875
191.67029135232588,230
192.72263278274659,214.80000305175781
193.77477172241379,202
194.82670821106694,192.39999389648438
195.87844228846188,232.39999389648438
196.92997399431806,200.39999389648438
197.98130336836039,207.19999694824219
199.03243045030285,184.60000610351563
200.083355279854,187.60000610351563
201.13407789669873,163
202.18459834053465,176.19999694824219
203.23491665102665,165.19999694824219
204.28503286785053,161
205.33494703066026,150.60000610351563
206.38465917910617,182
207.43416935282403,171.39999389648438
208.48347759144417,189
209.53258393459691,169
210.58148842188348,163.80000305175781
211.63019109291054,161
212.67869198727021,164
213.726991144551,167
214.775088604325,170.39999389648438
215.82298440615341,183.19999694824219
216.8706785896029,143.19999694824219
217.91817119421466,156.39999389648438
218.96546225952443,148.80000305175781
220.01255182506975,170.39999389648438
221.05943993036635,157
222.10612661491905,152
223.15261191823993,148.19999694824219
224.19889587981743,141
225.24497853913635,106.59999847412109
226.29085993566514,139.19999694824219
227.33654010887221,123.80000305175781
228.38201909822055,118.19999694824219
229.42729694314221,127
230.47237368309288,114.40000152587891
231.51724935748462,115.40000152587891
232.56192400574764,95.5999984741211
233.60639766728673,114.40000152587891
234.65067038150482,108
235.69474218779396,104.59999847412109
236.73861312553527,113.19999694824219
237.78228323410804,99.199996948242188
238.82575255286974,109
239.86902112117787,94.4000015258789
240.9120889783826,127.59999847412109
241.95495616381777,98.5999984741211
242.99762271681357,105.19999694824219
244.04008867668745,96.5999984741211
245.08235408274959,93.5999984741211
246.1244189743029,114
247.16628339063755,119.40000152587891
248.20794737103279,87.4000015258789
249.24941095476788,106.59999847412109
250.29067418110571,106.59999847412109
251.33173708930008,93.5999984741211
252.37259971859567,86.5999984741211
253.41326210823536,101.19999694824219
254.45372429744384,94.199996948242188
255.49398632544035,84.4000015258789
256.53404823143683,93.199996948242188
257.57391005463069,92.800003051757813
258.61357183421751,124.80000305175781
259.65303360938196,84.800003051757813
260.69229541928871,75.4000015258789
261.73135730310787,90.4000015258789
262.77021929999864,98.4000015258789
263.80888144910386,95
264.84734378955909,83.800003051757813
265.88560636049988,95
266.92366920103996,100.59999847412109
267.9615323502876,87.800003051757813
268.99919584735289,88.800003051757813
270.03665973132047,92.4000015258789
271.07392404127677,96.199996948242188
272.1109888162955,97
273.14785409544129,89.5999984741211
274.18451991776965,116.59999847412109
275.22098632233428,118.19999694824219
276.25725334816525,96.4000015258789
277.29332103429442,100.80000305175781
278.32918941974458,116.40000152587891
279.36485854352395,105.59999847412109
280.40032844463531,95.5999984741211
281.43559916207232,102.80000305175781
282.4706707348214,108.59999847412109
283.50554320185074,102.80000305175781
284.540216602134,96.4000015258789
285.57469097462854,82
286.60896635827521,116.19999694824219
287.6430427920186,114.80000305175781
288.67692031479055,109.80000305175781
289.71059896550651,128
290.74407878308375,114.59999847412109
291.777359806425,105.19999694824219
292.81044207441846,110.40000152587891
293.84332562596137,115
294.87601049991827,107.80000305175781
295.90849673516095,92.800003051757813
296.94078437055396,99.5999984741211
297.97287344493816,94.4000015258789
299.00476399715808,85.199996948242188
300.03645606604368,102.59999847412109
301.06794969041584,78.5999984741211
302.09924490909361,72.800003051757813
303.13034176088149,97.4000015258789
304.16124028456943,88
305.1919405189492,89.4000015258789
306.222442502798,95.4000015258789
307.25274627488216,95.800003051757813
308.2828518739625,70.5999984741211
309.31275933879624,88.800003051757813
310.34246870811512,104
311.37198002066361,88
312.40129331515891,87.800003051757813
313.43040863031638,109.80000305175781
314.45932600484593,92.4000015258789
315.48804547744476,91
316.51656708679729,78.5999984741211
317.54489087158618,69.4000015258789
318.57301687048675,94.5999984741211
319.60094512215619,75.4000015258789
320.62867566524437,82.800003051757813
321.65620853840483,89.4000015258789
322.68354378026197,73.4000015258789
323.71068142945296,71.199996948242188
324.73762152458949,83.199996948242188
325.76436410428141,82.4000015258789
326.79090920712588,78.199996948242188
327.81725687171638,71
328.84340713663732,50.599998474121094
329.86936004045674,50
330.8951156217463,55.799999237060547
331.92067391905039,76
332.9460349709243,64.5999984741211
333.97119881590334,56.799999237060547
334.99616549251732,65.199996948242188
336.02093503928518,61.599998474121094
337.04550749471673,63.200000762939453
338.06988289731453,75.5999984741211
339.09406128557566,46.799999237060547
340.11804269798085,71
341.14182717300719,75.5999984741211
342.16541474912265,61.799999237060547
343.18880546478249,62
344.21199935844015,54.400001525878906
345.23499646853088,70
346.25779683349174,67.4000015258789
347.2804004917416,65.199996948242188
348.30280748169571,51.599998474121094
349.3250178417602,63.400001525878906
350.34703161032849,45.599998474121094
351.36884882579034,60.200000762939453
352.39046952652461,65.199996948242188
353.41189375090107,53.400001525878906
354.43312153727675,59.599998474121094
355.45415292401049,61.200000762939453
356.47498794944113,66
357.49562665190388,46.400001525878906
358.51606906973029,70.5999984741211
359.53631524122466,71.4000015258789
360.55636520471126,63.200000762939453
361.576218998478,69.199996948242188
362.59587666081825,68.199996948242188
363.6153382300181,71.800003051757813
364.63460374434362,64.800003051757813
365.65367324206454,84
366.67254676143239,79.5999984741211
367.69122434069686,90.199996948242188
368.70970601810041,80
369.7279918318618,55.400001525878906
370.74608182021075,56.200000762939453
371.7639760213533,53.400001525878906
372.78167447349733,51.599998474121094
373.79917721483071,79.199996948242188
374.81648428354674,76
375.8335957178133,71.800003051757813
376.85051155580732,56.400001525878906
377.86723183568211,63.799999237060547
378.88375659558915,64.5999984741211
379.90008587367265,69.5999984741211
380.91621970806045,90.800003051757813
381.932158136884,44.200000762939453
382.94790119825484,58.599998474121094
383.96344893028072,81.199996948242188
384.97880137105676,59.799999237060547
385.99395855867624,61.200000762939453
387.0089205312197,62
388.02368732675495,59.200000762939453
389.03825898334981,70.5999984741211
390.05263553905752,53.799999237060547
391.06681703192226,54
392.08080349998454,59
393.09459498126671,50
394.10819151379292,44
395.12159313558004,72.199996948242188
396.13479988461768,62
397.14781179890815,47.200000762939453
398.16062891643014,82.5999984741211
399.17325127516779,59.799999237060547
400.18567891308157,67.4000015258789
401.19791186813563,78.5999984741211
402.20995017827954,73.199996948242188
403.22179388145014,73.5999984741211
404.23344301558427,64.800003051757813
405.24489761860423,72.5999984741211
406.256157728425,56.799999237060547
407.26722338295986,83.199996948242188
408.27809462009827,86.199996948242188
409.28877147773528,46.400001525878906
410.29925399374588,53
411.30954220601052,60.200000762939453
412.31963615238783,56.200000762939453
413.3295358707328,72.5999984741211
414.33924139889314,75.5999984741211
415.348752774702,70.4000015258789
416.35807003599439,88.4000015258789
417.36719322058889,88.5999984741211
418.3761223662932,68.199996948242188
419.38485751091685,77
420.39339869224932,70.5999984741211
421.4017459480765,64.800003051757813
422.4098993161806,59.200000762939453
423.41785883432567,71.4000015258789
424.42562454027211,88
425.43319647177304,58.400001525878906
426.44057466656886,66.4000015258789
427.44775916239269,57.400001525878906
428.45474999697581,60.400001525878906
429.46154720802588,70.5999984741211
430.46815083326146,71.199996948242188
431.474560910372,62.599998474121094
432.48077747705611,66.800003051757813
433.48680057099773,73.4000015258789
434.4926302298627,65
435.49826649132046,77.5999984741211
436.50370939302593,69.4000015258789
437.50895897263217,73.4000015258789
438.5140152677759,89.4000015258789
439.51887831608292,66
440.52354815518265,56.799999237060547
441.52802482268817,61.599998474121094
442.532308356198,79
443.53639879331604,80
444.54029617162814,67.800003051757813
445.54400052871461,66.5999984741211
446.54751190214483,94.4000015258789
447.55083032947732,59.599998474121094
448.553955848276,73.4000015258789
449.55688849607577,73.199996948242188
450.55962831042052,72.4000015258789
451.56217532883238,72.199996948242188
452.56452958883892,55.200000762939453
453.56669112794589,81.199996948242188
454.56865998365174,64
455.57043619345859,86
456.57201979484853,56.599998474121094
457.57341082529638,81.4000015258789
458.57460932227514,63
459.57561532323962,98.199996948242188
460.57642886564281,83
461.57704998692861,69.800003051757813
462.57747872453183,67.800003051757813
463.57771511587816,97.5999984741211
464.57775919838059,71.800003051757813
465.5776110094539,89.4000015258789
466.57727058649289,82.800003051757813
467.57673796689414,88.5999984741211
468.5760131880379,73.800003051757813
469.57509628729895,80.4000015258789
470.57398730204477,87
471.57268626963196,88.5999984741211
472.57119322740982,85.5999984741211
473.56950821272039,88.199996948242188
474.56763126289479,84.5999984741211
475.56556241525323,78.800003051757813
476.56330170711954,68.4000015258789
477.5608491757921,88
478.55820485857475,73
479.55536879275314,73
480.55234101561109,81.4000015258789
481.54912156442151,82
482.54571047644822,74.5999984741211
483.54210778894412,72.800003051757813
484.5383135391603,67.4000015258789
485.53432776433874,70.5999984741211
486.53015050170507,81.4000015258789
487.52578178848125,66.199996948242188
488.521221661882,62.400001525878906
489.51647015911294,84.199996948242188
490.511527317376,81.800003051757813
491.50639317384957,55.799999237060547
492.50106776571556,80.5999984741211
493.49555113015049,77
494.48984330431631,82.199996948242188
495.48394432536406,80.5999984741211
496.477854230443,79.800003051757813
497.47157305668588,67.800003051757813
498.46510084122747,61.599998474121094
499.45843762119148,88.4000015258789
500.45158343368166,76.5999984741211
501.44453831580358,80.199996948242188
502.43730230465735,61.400001525878906
503.4298754373267,62.799999237060547
504.42225775089173,92.4000015258789
505.41444928242527,61.400001525878906
506.40645006898194,72.4000015258789
507.39826014762366,76.5999984741211
508.38987955538869,76
509.38130832932075,94.5999984741211
510.3725465064399,66.800003051757813
511.36359412377169,74.4000015258789
512.35445121832345,83.4000015258789
513.345117827108,69.199996948242188
514.33559398710713,100.80000305175781
515.32587973531554,65.5999984741211
516.31597510870961,78.4000015258789
517.305880144253,94
518.29559487891856,76
519.2851193496499,78.5999984741211
520.27445359339254,88.4000015258789
521.2635976470865,84.4000015258789
522.25255154765728,82
523.24131533202308,83
524.22988903709665,78.4000015258789
525.21827269978348,76.4000015258789
526.20646635697267,79
527.19447004554968,97.800003051757813
528.18228380239634,67.5999984741211
529.16990766437993,77.199996948242188
530.15734166836046,87
531.14458585119428,72.5999984741211
532.13164024971957,82.199996948242188
533.11850490077813,95.199996948242188
534.1051798411936,66.5999984741211
535.09166510778778,99.4000015258789
536.0779607373679,90.800003051757813
537.06406676674123,75
538.04998323269865,63.200000762939453
539.03571017202739,68
540.02124762150379,80.5999984741211
541.00659561790053,80.5999984741211
541.99175419797393,81.800003051757813
542.97672339848032,101.59999847412109
543.96150325615963,74.5999984741211
544.94609380775364,84.4000015258789
545.93049508998593,92
546.91470713957824,80.4000015258789
547.89872999324143,86.800003051757813
548.88256368767543,84
549.86620825957834,72.4000015258789
550.84966374563555,84.199996948242188
551.83293018252334,87.199996948242188
552.81600760691072,67.5999984741211
553.79889605546123,91.4000015258789
554.78159556482933,72.5999984741211
555.76410617165857,94.800003051757813
556.74642791258339,108.40000152587891
557.72856082423277,91
558.71050494323026,73.199996948242188
559.692260306183,90.5999984741211
560.67382694969274,84
561.65520491036477,91.4000015258789
562.63639422477536,75
563.617394929508,84.199996948242188
564.59820706113169,82.4000015258789
565.5788306562099,82.5999984741211
566.55926575129524,95.5999984741211
567.53951238293848,79.5999984741211
568.51957058766675,73.199996948242188
569.49944040201626,93
570.47912186250869,114.59999847412109
571.45861500565115,90
572.43791986795441,87.4000015258789
573.417036485911,90.199996948242188
574.3959648960099,70.5999984741211
575.37470513472908,77.199996948242188
576.35325723854476,64.4000015258789
577.3316212439131,86.4000015258789
578.309797187294,80.4000015258789
579.28778510513439,92.800003051757813
580.26558503387241,88.199996948242188
581.24319700993874,78.5999984741211
582.22062106975318,104
583.1978572497319,78.800003051757813
584.17490558627833,90.4000015258789
585.15176611579591,98.4000015258789
586.12843887466624,90
587.1049238992764,87
588.08122122599343,84.199996948242188
589.05733089119167,82.4000015258789
590.03325293122,79.199996948242188
591.00898738242722,82.800003051757813
591.98453428115681,90
592.95989366373578,80.800003051757813
593.93506556649481,80.5999984741211
594.91005002574457,82.800003051757813
595.88484707779207,83.199996948242188
596.85945675894072,78.800003051757813
597.83387910547935,80.5999984741211
598.808114153695,108.40000152587891
599.78216193985281,66.199996948242188
600.7560225002253,86.5999984741211
601.729695871074,86.5999984741211
602.70318208864228,89
603.67648118917714,81.5999984741211
604.64959320891285,85.4000015258789
605.62251818407458,96.5999984741211
606.59525615087659,85.4000015258789
607.56780714553315,96.800003051757813
608.54017120424214,92
609.51234836320145,98.4000015258789
610.48433865859079,93
611.45614212658984,71.800003051757813
612.42775880336558,78.199996948242188
613.39918872508315,71.5999984741211
614.37043192788951,90
615.34148844793526,92.199996948242188
616.31235832134917,96.800003051757813
617.28304158426727,84.199996948242188
618.253538272802,89
619.2238484230711,67
620.19397207117981,105.40000152587891
621.16390925321321,91.199996948242188
622.13366000527276,79.4000015258789
623.103224363429,91.5999984741211
624.07260236375441,96
625.04179404231763,89
626.01079943516561,91.800003051757813
626.97961857835253,81.800003051757813
627.94825150791621,94.199996948242188
628.91669825988356,90.5999984741211
629.8849588702833,106.40000152587891
630.85303337512414,95.199996948242188
631.8209218104148,79.800003051757813
632.7886242121549,81.5999984741211
633.75614061633678,97.4000015258789
634.72347105893823,92.4000015258789
635.69061557593523,85.5999984741211
636.65757420329646,76.199996948242188
637.6243469769779,71.800003051757813
638.59093393293,98
639.55733510709615,90
640.5235505354085,99.4000015258789
641.48958025379216,96.199996948242188
642.45542429816669,79.800003051757813
643.4210827044426,93.4000015258789
644.38655550851945,83.800003051757813
645.351842746295,103.19999694824219
646.31694445364883,93
647.28186066646231,75.800003051757813
648.24659142060591,82.199996948242188
649.21113675193737,100.19999694824219
650.17549669631444,90.199996948242188
651.13967128958211,90.800003051757813
652.10366056757266,76
653.067464566122,81.4000015258789
654.03108332104784,81.5999984741211
654.99451686816428,90.800003051757813
655.95776524327266,91.800003051757813
656.920828482178,90
657.88370662066518,76.199996948242188
658.84639969451382,104.80000305175781
659.80890773950159,88.5999984741211
660.77123079139164,91.5999984741211
661.733368885938,92.4000015258789
662.69532205889118,96.800003051757813
663.65709034599786,81.4000015258789
664.61867378298484,94.4000015258789
665.58007240558072,87.800003051757813
666.54128624949954,89.800003051757813
667.50231535045532,90.199996948242188
668.46315974414392,90.800003051757813
669.42381946626119,78.4000015258789
670.38429455249025,101.59999847412109
671.34458503851238,100.40000152587891
672.30469095999615,95.199996948242188
673.2646123525974,94.5999984741211
674.224349251972,77.4000015258789
675.18390169377017,85.5999984741211
676.14326971362243,95.4000015258789
677.10245334716274,86.800003051757813
678.0614526300069,75.5999984741211
679.02026759777618,84
679.97889828607,102.80000305175781
680.93734473048789,103.80000305175781
681.89560696662011,85.5999984741211
682.85368503004611,92.199996948242188
683.81157895634169,86.4000015258789
684.76928878106992,81.4000015258789
