-777.87311982425126,-5.6666665077209473
-776.63374739947358,16.666666030883789
-775.39461482227671,5
-774.15572204389719,-4.3333334922790527
-772.91706901559337,12
-771.67865568863454,4.6666665077209473
-770.44048201429,-8
-769.20254794384346,-1
-767.96485342860433,12
-766.7273984198855,-2.6666667461395264
-765.49018286900719,7.3333334922790527
-764.25320672730777,-11.666666984558105
-763.01646994613657,0.66666668653488159
-761.77997247685744,-5.6666665077209473
-760.5437142708488,-13.333333015441895
-759.307695279489,-5.3333334922790527
-758.07191545417118,-18.333333969116211
-756.83637474631723,2.3333332538604736
-755.601073107342,-16.666666030883789
-754.36601048868215,12
-753.13118684178153,-13.333333015441895
-751.89660211810587,13.333333015441895
-750.66225626912092,-6.6666665077209473
-749.42814924630693,-0.3333333432674408
-748.19428100116238,-3.6666667461395264
-746.960651485193,-2.6666667461395264
-745.72726064991912,6.3333334922790527
-744.49410844686827,-2
-743.26119482758622,0.66666668653488159
-742.02851974362966,2.6666667461395264
-740.79608314656616,8
-739.5638849879706,8
-738.331925219436,11
-737.10020379257367,3.3333332538604736
-735.86872065898388,5.6666665077209473
-734.63747577031063,-12.333333015441895
-733.406469078187,4
-732.17570053426061,12
-730.94517009020092,6.3333334922790527
-729.71487769768464,0
-728.48482330838851,-3.6666667461395264
-727.25500687402564,-25.666666030883789
-726.02542834630549,18
-724.79608767694481,-17.333333969116211
-723.56698481768581,-6.6666665077209473
-722.33811972027434,4.6666665077209473
-721.10949233647079,-5
-719.88110261805014,-1
-718.652950516791,8.3333330154418945
-717.42503598449366,5.3333334922790527
-716.19735897296232,-7.6666665077209473
-714.96991943401918,-16
-713.74271731949739,11.666666984558105
-712.515752581241,6
-711.28902517110146,12
-710.06253504095184,-5.6666665077209473
-708.83628214267264,4
-707.610266428148,2.6666667461395264
-706.384487849291,-0.3333333432674408
-705.15894635801124,3.3333332538604736
-703.93364190623652,-11.666666984558105
-702.70857444590911,-11.333333015441895
-701.48374392898586,11
-700.25915030741635,-4
-699.03479353318289,-0.66666668653488159
-697.81067355827872,-8.6666669845581055
-696.58679033470071,7.3333334922790527
-695.36314381444936,-0.3333333432674408
-694.1397339495652,3.3333332538604736
-692.91656069207056,1.3333333730697632
-691.69362399401689,8.6666669845581055
-690.47092380745926,-0.3333333432674408
-689.24846008447821,12
-688.02623277714338,2
-686.80424183756077,17.666666030883789
-685.58248721782911,-12.333333015441895
-684.360968870069,-13.333333015441895
-683.13968674641546,5
-681.91864079900733,0.3333333432674408
-680.69783097999425,-5.6666665077209473
-679.4772572415477,6.3333334922790527
-678.25691953584283,-4.3333334922790527
-677.0368178150693,5.3333334922790527
-675.81695203143136,4.6666665077209473
-674.59732213714051,11
-673.37792808442282,-33
-672.15876982551163,2.3333332538604736
-670.9398473126621,2.3333332538604736
-669.72116049812939,-2.3333332538604736
-668.50270933419051,4.6666665077209473
-667.28449377312245,-6.3333334922790527
-666.0665137672313,-9
-664.84876926881952,7
-663.63126023020413,-15
-662.413986603724,-0.66666668653488159
-661.19694834172151,5.6666665077209473
-659.9801453965465,-5
-658.76357772057054,3.3333332538604736
-657.54724526617247,-13
-656.33114798573843,-5
-655.11528583168,-2.6666667461395264
-653.89965875640155,13
-652.68426671233283,1
-651.46910965191455,-9
-650.25418752759469,-3.6666667461395264
-649.03950029183216,2.3333332538604736
-647.825047897104,0.3333333432674408
-646.61083029589463,-2.6666667461395264
-645.39684744069928,-14
-644.18309928402778,9.3333330154418945
-642.96958577839359,-20.333333969116211
-641.75630687633929,-0.66666668653488159
-640.54326253040745,1
-639.33045269314425,-12.666666984558105
-638.117877317125,10
-636.90553635492142,-15.333333015441895
-635.69342975913059,0.3333333432674408
-634.481557482357,8
-633.26991947720853,-4
-632.05851569631523,-11.666666984558105
-630.84734609231418,-2.3333332538604736
-629.63641061784983,4
-628.4257092255848,-1.6666666269302368
-627.21524186819988,-0.66666668653488159
-626.00500849836862,-7.6666665077209473
-624.79500906879366,-11
-623.58524353217763,-3.6666667461395264
-622.37571184124863,4
-621.1664139487275,3.6666667461395264
-619.95734980736415,-11
-618.74851936991581,-5.3333334922790527
-617.539922589136,-3.3333332538604736
-616.33155941781479,-5.6666665077209473
-615.12342980873473,0
-613.91553371470036,10
-612.70787108852346,12.333333015441895
-611.50044188302672,-8.3333330154418945
-610.29324605104739,-2.6666667461395264
-609.08628354543725,5
-607.87955431905175,-15
-606.67305832475722,1.3333333730697632
-605.46679551544912,8.3333330154418945
-604.26076584400835,-27
-603.05496926335218,-4
-601.849405726387,-5.6666665077209473
-600.64407518604821,7.6666665077209473
-599.438977595275,-6.6666665077209473
-598.234112907021,0.3333333432674408
-597.02948107425073,-3
-595.82508204993974,5.6666665077209473
-594.62091578707441,-17
-593.41698223864842,-22.666666030883789
-592.21328135768454,-5
-591.009813097191,5.3333334922790527
-589.80657741020877,-5.3333334922790527
-588.60357424978247,-4.6666665077209473
-587.4008035689676,3
-586.19826532083425,-18.666666030883789
-584.99595945845977,15.666666984558105
-583.793885934936,-4
-582.5920447033659,-5
-581.39043571686307,12.333333015441895
-580.18905892855764,-7.3333334922790527
-578.98791429158518,-16
-577.78700175909034,-18
-576.58632128423778,-6.6666665077209473
-575.38587282020308,-0.3333333432674408
-574.1856563201618,-9.3333330154418945
-572.98567173731681,6.6666665077209473
-571.78591902487278,5
-570.58639813603986,-8.6666669845581055
-569.38710902406274,-17.333333969116211
-568.18805164217156,-7
-566.98922594362557,2.3333332538604736
-565.790631881684,9.6666669845581055
-564.59226940962253,-8.6666669845581055
-563.39413848073127,-19
-562.19623904831133,4.6666665077209473
-560.99857106566742,-17.333333969116211
-559.80113448612792,5
-558.60392926301938,-9.3333330154418945
-557.40695534968654,0.66666668653488159
-556.21021269949415,-6
-555.0137012658015,11
-553.81742100199153,16
-552.62137186145628,-27
-551.4255537975896,-21.333333969116211
-550.22996676381626,-17.666666030883789
-549.03461071355377,-4.3333334922790527
-547.8394856002451,-5.3333334922790527
-546.64459137733138,0
-545.449927998272,-13.333333015441895
-544.25549541654073,-17.333333969116211
-543.06129358562066,-8.3333330154418945
-541.86732245900566,0.3333333432674408
-540.67358199019873,-21.666666030883789
-539.48007213271376,-7.3333334922790527
-538.28679284007922,-6.6666665077209473
-537.09374406584539,4
-535.900925763548,-11.333333015441895
-534.70833788675736,-4.3333334922790527
-533.51598038904558,-2
-532.32385322399932,-25
-531.13195634520889,-3.6666667461395264
-529.94028970629006,-4
-528.74885326085314,-22
-527.55764696253573,-20.666666030883789
-526.36667076497724,-15
-525.17592462183165,7.6666665077209473
-523.985408486762,-13.333333015441895
-522.79512231344415,3
-521.60506605556839,-19
-520.41523966682871,-3.6666667461395264
-519.22564310093912,-11.666666984558105
-518.0362763116209,-16.333333969116211
-516.84713925260257,-22
-515.65823187763453,9.6666669845581055
-514.46955414046715,1.3333333730697632
-513.28110599486718,-13.333333015441895
-512.09288739461954,-10
-510.90489829350736,-24.333333969116211
-509.71713864533194,-2
-508.52960840390369,3
-507.3423075230512,-4.6666665077209473
-506.15523595660488,-30.666666030883789
-504.96839365841697,-1
-503.78178058233607,3.6666667461395264
-502.59539668223624,-2.3333332538604736
-501.4092419119952,-7
-500.223316225507,-28.333333969116211
-499.0376195766712,-2.3333332538604736
-497.85215191940188,-4
-496.666913207624,-10.666666984558105
-495.48190339527719,-8.3333330154418945
-494.29712243630638,-8
-493.11257028467116,-36
-491.928246894342,-4.3333334922790527
-490.7441522193003,-17.333333969116211
-489.56028621353471,6.6666665077209473
-488.37664883105754,-8
-487.19324002587746,8
-486.01005975202315,-10.666666984558105
-484.8271079635324,-13.666666984558105
-483.6443846144557,-9
-482.46188965885085,-17
-481.27962305079018,-6.3333334922790527
-480.09758474435512,-12
-478.91577469364165,-0.66666668653488159
-477.73419285275304,-15.333333015441895
-476.55283917580709,-10
-475.37171361693436,-14
-474.19081613026719,-4.6666665077209473
-473.010146669958,-32
-471.82970519017181,-5.6666665077209473
-470.64949164507379,8.6666669845581055
-469.46950598885633,1.6666666269302368
-468.28974817570452,-12.333333015441895
-467.1102181598344,1493
-465.93091589545475,2349
-464.75184133679977,3062
-463.57299443810552,96
-462.39437515362624,33.333332061767578
-461.2159834376198,-11.333333015441895
-460.03781924436043,-17.666666030883789
-458.85988252813513,9.3333330154418945
-457.68217324323632,-33.333332061767578
-456.50469134396917,-17.333333969116211
-455.32743678465886,-13.333333015441895
-454.15040951962692,-7.3333334922790527
-452.97360950321672,3.6666667461395264
-451.79703668977709,-17.666666030883789
-450.62069103367321,-6.3333334922790527
-449.4445724892721,-14
-448.26868101096989,-2.6666667461395264
-447.09301655315357,-21
-445.9175790702302,-12.666666984558105
-444.74236851661954,-6.6666665077209473
-443.56738484675407,-27.333333969116211
-442.39262801506811,-4.6666665077209473
-441.21809797601236,-12
-440.0437946840575,-5
-438.86971809366878,-3.3333332538604736
-437.69586815933872,-10
-436.52224483555256,-7.3333334922790527
-435.34884807682647,-11
-434.17567783767481,-0.66666668653488159
-433.00273407262466,-6.3333334922790527
-431.83001673621948,-15
-430.65752578300453,-4.6666665077209473
-429.4852611675542,-15
-428.31322284443013,-7
-427.14141076821943,8
-425.96982489351649,-21.666666030883789
-424.79846517493388,6.3333334922790527
-423.62733156708055,-20
-422.45642402459453,0.3333333432674408
-421.28574250211022,-6.6666665077209473
-420.1152869542766,-7.6666665077209473
-418.94505733575534,-10.333333015441895
-417.77505360122632,-9.6666669845581055
-416.60527570536397,-13.666666984558105
-415.43572360287,-22
-414.26639724844608,-13.666666984558105
-413.09729659681216,-7
-411.92842160268992,-29.666666030883789
-410.7597722208302,-2
-409.59134840596926,-24.666666030883789
-408.42315011287792,-3
-407.2551772963252,-0.3333333432674408
-406.087429911091,-16.333333969116211
-404.9199079119735,-8
-403.75261125377619,-19.666666030883789
-402.58553989131542,-22.666666030883789
-401.41869377941293,-30.333333969116211
-400.25207287291232,2.6666667461395264
-399.08567712666627,-5.3333334922790527
-397.919506495522,-23.666666030883789
-396.75356093436312,10.666666984558105
-395.58784039806596,-15
-394.42234484151959,-10
-393.25707421963307,-13
-392.09202848732275,-14
-390.92720759950862,15
-389.76261151112521,-18.666666030883789
-388.59824017713072,-13.333333015441895
-387.43409355247422,3.6666667461395264
-386.27017159212846,-14
-385.10647425107527,-24
-383.94300148430193,-16
-382.77975324681393,-12.666666984558105
-381.616729493624,-15
-380.453930179754,-13.333333015441895
-379.29135526024038,-4
-378.129004690134,-24
-376.96687842448227,-18.666666030883789
-375.80497641835791,-12.333333015441895
-374.64329862683917,-9.6666669845581055
-373.4818450050152,-13.333333015441895
-372.32061550798426,-10.333333015441895
-371.15961009086277,-9
-369.99882870877082,-5.3333334922790527
-368.83827131683756,-23.333333969116211
-367.677937870214,-25.333333969116211
-366.51782832404751,-17.333333969116211
-365.3579426335109,-6.6666665077209473
-364.19828075377518,-14.666666984558105
-363.03884264003136,-8.6666669845581055
-361.87962824747046,-21
-360.7206375313126,-10
-359.56187044677063,-15.666666984558105
-358.403326949081,-7.6666665077209473
-357.24500699348027,-7.6666665077209473
-356.08691053522307,-25.666666030883789
-354.92903752956954,-14
-353.771387931798,-23.333333969116211
-352.61396169719228,-14
-351.45675878105067,0
-350.29977913867333,-18.333333969116211
-349.14302272538407,-3.3333332538604736
-347.98648949651215,-12.333333015441895
-346.83017940739046,-17.666666030883789
-345.67409241337191,-6
-344.51822846982031,-30.333333969116211
-343.36258753210313,-12.333333015441895
-342.20716955560965,-30.333333969116211
-341.05197449572188,-25.666666030883789
-339.89700230785638,-8.3333330154418945
-338.74225294741518,-27.666666030883789
-337.58772636983667,-17.333333969116211
-336.43342253054652,-23
-335.27934138499768,-10
-334.12548288865037,-13
-332.97184699696481,-15
-331.81843366542853,-5.3333334922790527
-330.66524284953266,-17.666666030883789
-329.51227450476654,-6
-328.35952858665769,-17.666666030883789
-327.20700505071909,-0.66666668653488159
-326.05470385248555,-24.333333969116211
-324.90262494750459,-7.3333334922790527
-323.75076829132558,-24
-322.59913383951789,-11
-321.44772154765633,-16
-320.29653137132846,0.66666668653488159
-319.14556326613092,-17.333333969116211
-317.99481718767311,-23.666666030883789
-316.84429309157531,-11
-315.69399093346874,-18.666666030883789
-314.54391066899007,-17
-313.39405225379596,-20
-312.24441564354129,-22.333333969116211
-311.09500079390455,-15
-309.94580766056788,-24.666666030883789
-308.79683619922253,9.6666669845581055
-307.64808636558337,-1.6666666269302368
-306.49955811535619,-26.333333969116211
-305.35125140426862,-17.666666030883789
-304.203166188061,-6
-303.05530242247733,-2.6666667461395264
-301.90766006327794,-27
-300.76023906623413,-14.333333015441895
-299.61303938712081,-1.6666666269302368
-298.46606098173288,2.3333332538604736
-297.31930380586527,-7.6666665077209473
-296.17276781533837,-12.333333015441895
-295.02645296596893,-4.3333334922790527
-293.88035921359551,-16.666666030883789
-292.73448651404942,1.6666666269302368
-291.58883482319834,3
-290.44340409690449,-25.666666030883789
-289.29819429103554,-16.666666030883789
-288.15320536148647,-10.666666984558105
-287.0084372641486,-33.333332061767578
-285.86388995493689,-6.6666665077209473
-284.7195633897627,-7.3333334922790527
-283.57545752455371,-8
-282.431572315254,-30.333333969116211
-281.28790771781496,16.666666030883789
-280.1444636881879,-6
-279.00124018235692,-9.3333330154418945
-277.8582371562934,-1
-276.71545456599597,-0.66666668653488159
-275.57289236746692,-2.3333332538604736
-274.43055051671945,-4.3333334922790527
-273.28842896977221,5
-272.14652768267115,-7
-271.00484661145128,10
-269.86338571217493,8.3333330154418945
-268.72214494090622,-3.6666667461395264
-267.581124253722,-1.3333333730697632
-266.44032360671372,-6.6666665077209473
-265.29974295597458,10
-264.159382257616,8
-263.01924146776037,-17.666666030883789
-261.87932054252815,22.333333969116211
-260.73961943807444,8.3333330154418945
-259.60013811053796,-4
-258.46087651608468,15.666666984558105
-257.32183461088971,-2.6666667461395264
-256.18301235113358,4.6666665077209473
-255.04440969300595,9.6666669845581055
-253.90602659271462,31
-252.76786300647473,6.6666665077209473
-251.62991889051045,17.333333969116211
-250.49219420105146,15
-249.35468889435288,4.3333334922790527
-248.217402926668,19
-247.08033625425924,28
-245.94348883341445,18.666666030883789
-244.80686062040877,9.3333330154418945
-243.67045157154826,23
-242.53426164314442,1.6666666269302368
-241.39829079150877,32
-240.26253897297829,7
-239.12700614388814,53.333332061767578
-237.99169226059348,29
-236.85659727945676,26.666666030883789
-235.72172115684771,36
-234.58706384914331,44.333332061767578
-233.4526253127442,37.666667938232422
-232.31840550405468,20.333333969116211
-231.18440437947902,34.333332061767578
-230.05062189545242,37.333332061767578
-228.91705800840282,39.333332061767578
-227.78371267477996,38.666667938232422
-226.65058585103725,50
-225.51767749363898,27.333333969116211
-224.38498755906403,50.333332061767578
-223.2525160037967,26
-222.1202627843395,60.666667938232422
-220.98822785719858,60.333332061767578
-219.85641117888918,58.666667938232422
-218.7248127059429,36
-217.59343239489681,40.666667938232422
-216.46227020230072,57
-215.3313260847226,47.333332061767578
-214.20059999872137,49.666667938232422
-213.07009190087956,62.333332061767578
-211.9398017477979,32.333332061767578
-210.80972949606621,34
-209.67987510230523,48
-208.5502385231357,50.666667938232422
-207.42081971518564,60.333332061767578
-206.29161863510308,60.666667938232422
-205.16263523954149,57
-204.03386948516163,59
-202.90532132864428,66.333335876464844
-201.77699072666474,57.666667938232422
-200.64887763592742,46
-199.52098201313311,73.333335876464844
-198.39330381500076,69.666664123535156
-197.26584299825117,71.666664123535156
-196.13859951962695,59.333332061767578
-195.01157333587253,90
-193.88476440374143,77.333335876464844
-192.75817268001083,87
-191.63179812144881,79.333335876464844
-190.50564068485255,92
-189.3797003270156,69.666664123535156
-188.25397700474423,90.666664123535156
-187.12847067486291,81
-186.00318129420339,96.333335876464844
-184.87810881960104,87
-183.75325320790944,101.33333587646484
-182.62861441598398,112.66666412353516
-181.50419240070187,105.66666412353516
-180.37998711894033,116
-179.25599852759296,126.66666412353516
-178.13222658356062,119.33333587646484
-177.00867124376236,145.33332824707031
-175.88533246510815,157
-174.76221020454068,165.66667175292969
-173.63930441900084,145.33332824707031
-172.51661506544224,155
-171.39414210082759,143.33332824707031
-170.27188548212871,177.66667175292969
-169.14984516633558,210
-168.02802111043638,189.66667175292969
-166.90641327144112,189.33332824707031
-165.78502160636344,187
-164.66384607223154,222.66667175292969
-163.54288662607541,222.33332824707031
-162.4221432249451,217.33332824707031
-161.30161582589426,262.66665649414063
-160.18130438598928,257.66665649414063
-159.06120886230929,273.66665649414063
-157.94132921194432,232.66667175292969
-156.82166539198624,286.33334350585938
-155.70221735953965,328.33334350585938
-154.58298507173095,302.66665649414063
-153.46396848568111,295
-152.34516755853474,318
-151.22658224743282,344.33334350585938
-150.10821250953813,387
-148.99005830202077,388
-147.87211958205626,396.33334350585938
-146.75439630683832,376
-145.63688843355885,402.66665649414063
-144.51959591943705,422.33334350585938
-143.40251872168847,457.33334350585938
-142.28565679753956,490.66665649414063
-141.16901010423499,472.33334350585938
-140.05257859902849,518.33331298828125
-138.93636223917383,459.33334350585938
-137.82036098194294,553
-136.70457478462595,535.33331298828125
-135.58900360449843,537
-134.47364739887416,564.66668701171875
-133.35850612506329,567
-132.24357974038321,596.33331298828125
-131.12886820217136,554.33331298828125
-130.01437146776334,563
-128.90008949451476,577
-127.78602223979033,611.33331298828125
-126.67216966095839,616.66668701171875
-125.55853171540366,641.33331298828125
-124.44510836051813,609.66668701171875
-123.33189955371017,675
-122.2189052523845,644
-121.10612541397313,680.33331298828125
-119.9935599959008,658.33331298828125
-118.88120895561769,710
-117.76907225057403,665.33331298828125
-116.65714983823818,728
-115.54544167607855,690
-114.43394772158354,743
-113.32266793224335,727.33331298828125
-112.21160226556458,758.66668701171875
-111.10075067906291,770
-109.99011313026131,747.33331298828125
-108.87968957669545,757.33331298828125
-107.76947997590833,800
-106.65948428545926,796.66668701171875
-105.54970246290759,805
-104.44013446582903,841
-103.33078025181567,892
-102.22163977845048,881
-101.11271300335284,906.33331298828125
-100.00399988412755,929
-98.8955003784049,923.33331298828125
-97.787214443818812,964.66668701171875
-96.679142038015925,985.66668701171875
-95.571283118651991,979.66668701171875
-94.46363764339003,1019.6666870117188
-93.356205569909434,960.33331298828125
-92.248986855895055,1058.6666259765625
-91.141981459042654,981.33331298828125
-90.035189337055272,1021.6666870117188
-88.928610447654137,1033.6666259765625
-87.8222447485623,1030.6666259765625
-86.716092197515536,1068
-85.610152752264185,1077.3333740234375
-84.504426370558576,1085.3333740234375
-83.3989130101636,1127
-82.29361262886232,1093.6666259765625
-81.188525184439641,1159
-80.083650634691367,1161.3333740234375
-78.978988937416943,1169
-77.8745400504431,1211
-76.7703039315893,1260.6666259765625
-75.666280538693172,1311.3333740234375
-74.56246982959965,1334
-73.45887176217002,1369.3333740234375
-72.355486294265575,1446.3333740234375
-71.2523133837658,1506
-70.149352988557439,1601
-69.046605066534539,1651.3333740234375
-67.944069575602043,1685.3333740234375
-66.84174647367945,1796.3333740234375
-65.739635718693535,1796.3333740234375
-64.63773726857471,1833.6666259765625
-63.5360510812734,1942
-62.434577114750937,2063
-61.3333153269632,2100
-60.232265675895178,2217
-59.131428119522752,2134.333251953125
-58.030802615854554,2332.666748046875
-56.930389122886481,2438.666748046875
-55.830187598636257,2536.333251953125
-54.730198001132521,2596.666748046875
-53.630420288413006,2755
-52.530854418515446,2865.666748046875
-51.431500349504859,2983
-50.332358039440805,3151.666748046875
-49.233427446402857,3346.666748046875
-48.134708528470583,3480.333251953125
-47.036201243741743,3803
-45.937905550323194,3978
-44.839821406334522,4145.66650390625
-43.74194876988804,4264.66650390625
-42.64428759913244,4200.33349609375
-41.5468378522055,4340
-40.449599487265004,4376
-39.352572462472381,4462.33349609375
-38.255756736005424,4469
-37.159152266047386,4629.66650390625
-36.062759010790614,4860.66650390625
-34.966576928443828,5039.33349609375
-33.8706059772212,5279.33349609375
-32.774846115338732,5499.33349609375
-31.679297301039696,5754.33349609375
-30.583959492563736,6023
-29.488832648166863,6071.33349609375
-28.393916726110547,6223.66650390625
-27.299211684672628,6321.33349609375
-26.204717482129126,6555.33349609375
-25.110434076774254,6598.66650390625
-24.016361426916774,6593.66650390625
-22.922499490865448,6516.66650390625
-21.828848226945411,6515.66650390625
-20.735407593489072,6501
-19.642177548834297,6271
-18.549158051340783,6145
-17.456349059368222,6015.33349609375
-16.363750531281767,5864.33349609375
-15.271362425470215,5817.33349609375
-14.179184700326005,5546
-13.087217314247027,5579
-11.995460225642091,5318.66650390625
-10.903913392940012,5202
-9.8125767745696066,5411.66650390625
-8.7214503289651475,5412
-7.6305340145827358,5439
-6.5398277898821107,5409.33349609375
-5.4493316133357439,4563.33349609375
-4.3590454434179264,3129.666748046875
-3.26896923861932,1662
-2.1791029574433196,432
-1.0894465583987767,87
-3.637978807091713E-12,37.666667938232422
1.0892367592168739,430.66665649414063
2.1782637607157085,1662
3.2670810459494533,3121.333251953125
4.3556886563619628,4528
5.4440866333861777,5374
6.5322750184368488,5592.33349609375
7.6202538529305457,5493
8.7080231782692863,5507.33349609375
9.7955830358478124,5480.33349609375
10.882933467048133,5512.66650390625
11.970074513241343,5639.66650390625
13.0570062157949,5756
14.143728616063527,5944.33349609375
15.230241755389216,6083.33349609375
16.316545675103043,6213
17.402640416532449,6464
18.488526020995778,6580.66650390625
19.574202529791364,6763.33349609375
20.659669984221182,6803.66650390625
21.744928425567196,6898.66650390625
22.82997789510955,6909.66650390625
23.914818434106564,6969
24.99945008382565,6940.66650390625
26.083872885503297,6718.66650390625
27.168086880381452,6831.33349609375
28.252092109691148,6699.66650390625
29.33588861464159,6468
30.419476436449258,6230.66650390625
31.502855616305169,6054.66650390625
32.586026195402155,5749.33349609375
33.668988214920319,5596.66650390625
34.751741716028846,5365.66650390625
35.834286739884192,5215
36.916623327637353,4965.33349609375
37.998751520428414,4967.33349609375
39.080671359392,4828.33349609375
40.162382885640909,4832.66650390625
41.243886140291579,4744.33349609375
42.325181164447713,4627.33349609375
43.406267999200281,4579.66650390625
44.4871466856257,4479.66650390625
45.5678172648004,4356.66650390625
46.648279777786229,4162.66650390625
47.72853426563961,3866
48.8085807694024,3734.333251953125
49.888419330107354,3518.666748046875
50.968049988779967,3222
52.047472786436629,3126
53.126687764075541,3057.333251953125
54.205694962698544,2953.666748046875
55.284494423289289,2671.333251953125
56.363086186827786,2678.666748046875
57.44147029427404,2598.333251953125
58.519646786589874,2611.333251953125
59.597615704718919,2465.333251953125
60.67537708960117,2433.333251953125
61.752930982163889,2339
62.83027742332888,2284.333251953125
63.90741645399612,2150.333251953125
64.984348115074681,2163.666748046875
66.061072447448169,2040
67.13758949199655,2001.3333740234375
68.213899289597975,1851
69.29000188109967,1848
70.36589730736705,1747.6666259765625
71.441585609234608,1746.6666259765625
72.517066827535018,1657.3333740234375
73.592341003088222,1588.3333740234375
74.667408176715981,1595.3333740234375
75.742268389207311,1559.3333740234375
76.816921681369422,1448.3333740234375
77.891368093980418,1465.3333740234375
78.965607667816585,1414.3333740234375
80.039640443639655,1304.6666259765625
81.113466462209544,1416
82.187085764271615,1303.3333740234375
83.260498390560315,1320
84.333704381804637,1280.3333740234375
85.40670377871902,1345.3333740234375
86.479496622014267,1270.3333740234375
87.552082952388446,1271
88.624462810528712,1270.6666259765625
89.6966362371113,1226.3333740234375
90.76860327281247,1309.6666259765625
91.840363958286616,1293
92.911918334189977,1291.3333740234375
93.983266441158776,1234.3333740234375
95.054408319829236,1186
96.12534401081939,1196.6666259765625
97.19607355474,1158
98.2665969922,1155.3333740234375
99.336914363786491,1069.6666259765625
100.40702571009024,1123.6666259765625
101.47693107168197,1074
102.54663048912334,1046.6666259765625
103.61612400297781,1061
104.68541165378701,1045.6666259765625
105.75449348208713,1031.3333740234375
106.82336952840706,1007.3333129882813
107.89203983326297,995.66668701171875
108.96050443715831,921.66668701171875
110.02876338060378,1038
111.09681670407736,956.33331298828125
112.16466444806247,922.33331298828125
113.23230665302981,933.33331298828125
114.2997433594428,926.66668701171875
115.36697460774849,915.66668701171875
116.43400043838665,870.33331298828125
117.50082089179705,894.66668701171875
118.56743600839945,873.66668701171875
119.63384582860272,874.33331298828125
120.70005039281386,859.66668701171875
121.76604974143083,865.66668701171875
122.83184391483519,916
123.89743295340486,821.66668701171875
124.96281689750322,814.66668701171875
126.02799578748636,813.66668701171875
127.09296966370857,810.33331298828125
128.15773856649867,775.66668701171875
129.22230253619455,796.66668701171875
130.28666161311048,746.33331298828125
131.35081583755345,773.66668701171875
132.414765249825,773.33331298828125
133.47850989022481,746
134.54204979901988,736.33331298828125
135.60538501649535,740.66668701171875
136.66851558290364,666.66668701171875
137.73144153850444,696.66668701171875
138.79416292353926,702.33331298828125
139.85667977824414,674.33331298828125
140.91899214284422,649
141.9811000575537,628.66668701171875
143.0430035625759,610.33331298828125
144.10470269811231,531.66668701171875
145.16619750435348,543
146.22748802146998,516
147.28857428963602,476.33334350585938
148.3494563490076,504.33334350585938
149.41013423973891,486.33334350585938
150.47060800196778,470.33334350585938
151.53087767582292,470.33334350585938
152.59094330143125,482
153.65080491890512,445.33334350585938
154.71046256834779,434.66665649414063
155.76991628984433,411.66665649414063
156.82916612349436,393.66665649414063
157.88821210936294,388.66665649414063
158.94705428751695,361.66665649414063
160.00569269801963,373.33334350585938
161.06412738090876,346.66665649414063
162.12235837622939,308.33334350585938
163.18038572400837,308.33334350585938
164.23820946425803,310.33334350585938
165.29582963700341,305.33334350585938
166.35324628222952,260.33334350585938
167.41045943993777,270.66665649414063
168.4674691501059,257.33334350585938
169.52427545270439,257
170.58087838770371,275.33334350585938
171.63727799505432,244
172.6934743146976,227.33332824707031
173.74946738657491,208.66667175292969
174.80525725060761,204.33332824707031
175.86084394671525,206.66667175292969
176.91622751480463,157
177.97140799477529,231
179.02638542651403,209.33332824707031
180.08115984989854,171.33332824707031
181.13573130480836,175.66667175292969
182.1900998310939,131.33332824707031
183.24426546861469,164
184.29822825721203,142
185.35198823671635,127.66666412353516
186.40554544695078,125.33333587646484
187.45889992773846,155.33332824707031
188.51205171887523,133
189.5650008601624,142.66667175292969
190.61774739138855,93
191.67029135232588,113.33333587646484
192.72263278274659,126.33333587646484
193.77477172241379,113.66666412353516
194.82670821106694,100
195.87844228846188,106.66666412353516
196.92997399431806,113.33333587646484
197.98130336836039,92.333335876464844
199.03243045030285,110
200.083355279854,113
201.13407789669873,92.333335876464844
202.18459834053465,90.666664123535156
203.23491665102665,91.333335876464844
204.28503286785053,88.333335876464844
205.33494703066026,96
206.38465917910617,59.666667938232422
207.43416935282403,107.66666412353516
208.48347759144417,80.666664123535156
209.53258393459691,63.666667938232422
210.58148842188348,71.666664123535156
211.63019109291054,93
212.67869198727021,70.333335876464844
213.726991144551,76.666664123535156
214.775088604325,82.666664123535156
215.82298440615341,96.333335876464844
216.8706785896029,75.333335876464844
217.91817119421466,67.333335876464844
218.96546225952443,77.666664123535156
220.01255182506975,71.333335876464844
221.05943993036635,98
222.10612661491905,73.333335876464844
223.15261191823993,67.333335876464844
224.19889587981743,67.333335876464844
225.24497853913635,53.666667938232422
226.29085993566514,73.333335876464844
227.33654010887221,70
228.38201909822055,76.333335876464844
229.42729694314221,40.666667938232422
230.47237368309288,31.666666030883789
231.51724935748462,85.666664123535156
232.56192400574764,63.666667938232422
233.60639766728673,50.333332061767578
234.65067038150482,65
235.69474218779396,47.333332061767578
236.73861312553527,46
237.78228323410804,52.666667938232422
238.82575255286974,41.666667938232422
239.86902112117787,33.333332061767578
240.9120889783826,51.333332061767578
241.95495616381777,17.333333969116211
242.99762271681357,40.333332061767578
244.04008867668745,32.333332061767578
245.08235408274959,35.333332061767578
246.1244189743029,43.333332061767578
247.16628339063755,27.666666030883789
248.20794737103279,34.666667938232422
249.24941095476788,32.666667938232422
250.29067418110571,36.333332061767578
251.33173708930008,22.666666030883789
252.37259971859567,5
253.41326210823536,39.666667938232422
254.45372429744384,21
255.49398632544035,28
256.53404823143683,19.333333969116211
257.57391005463069,3.3333332538604736
258.61357183421751,16.666666030883789
259.65303360938196,32.666667938232422
260.69229541928871,13.666666984558105
261.73135730310787,17.666666030883789
262.77021929999864,17.666666030883789
263.80888144910386,4.3333334922790527
264.84734378955909,15.333333015441895
265.88560636049988,20.666666030883789
266.92366920103996,0.66666668653488159
267.9615323502876,19.333333969116211
268.99919584735289,9
270.03665973132047,17
271.07392404127677,-3.6666667461395264
272.1109888162955,-1.3333333730697632
273.14785409544129,5.3333334922790527
274.18451991776965,7
275.22098632233428,-7.3333334922790527
276.25725334816525,15.333333015441895
277.29332103429442,4.3333334922790527
278.32918941974458,1.6666666269302368
279.36485854352395,4
280.40032844463531,4
281.43559916207232,-4.3333334922790527
282.4706707348214,-2.6666667461395264
283.50554320185074,-10.666666984558105
284.540216602134,-11
285.57469097462854,10.666666984558105
286.60896635827521,-17
287.6430427920186,-8.6666669845581055
288.67692031479055,0
289.71059896550651,-16
290.74407878308375,-5
291.777359806425,4
292.81044207441846,-16
293.84332562596137,-14.666666984558105
294.87601049991827,4.6666665077209473
295.90849673516095,-20
296.94078437055396,-20.666666030883789
297.97287344493816,-18.666666030883789
299.00476399715808,11
300.03645606604368,-6
301.06794969041584,-36.666667938232422
302.09924490909361,13.333333015441895
303.13034176088149,-8.6666669845581055
304.16124028456943,-9.6666669845581055
305.1919405189492,-17
306.222442502798,-13
307.25274627488216,-16.333333969116211
308.2828518739625,-15.666666984558105
309.31275933879624,-4.3333334922790527
310.34246870811512,-32
311.37198002066361,-2.6666667461395264
312.40129331515891,-29.333333969116211
313.43040863031638,-9.6666669845581055
314.45932600484593,5
315.48804547744476,-8
316.51656708679729,-21.666666030883789
317.54489087158618,8
318.57301687048675,-24
319.60094512215619,-1.6666666269302368
320.62867566524437,-19.666666030883789
321.65620853840483,-20
322.68354378026197,-15.666666984558105
323.71068142945296,-18.666666030883789
324.73762152458949,-27.666666030883789
325.76436410428141,-13.666666984558105
326.79090920712588,-20.666666030883789
327.81725687171638,-25.666666030883789
328.84340713663732,-24.333333969116211
329.86936004045674,-36
330.8951156217463,-26
331.92067391905039,-37
332.9460349709243,-13.333333015441895
333.97119881590334,-17
334.99616549251732,-31.666666030883789
336.02093503928518,-27.333333969116211
337.04550749471673,-41.333332061767578
338.06988289731453,-13
339.09406128557566,-45.666667938232422
340.11804269798085,-32.333332061767578
341.14182717300719,-10.666666984558105
342.16541474912265,-27.333333969116211
343.18880546478249,-46
344.21199935844015,-12.666666984558105
345.23499646853088,-24.666666030883789
346.25779683349174,-31.333333969116211
347.2804004917416,-15.333333015441895
348.30280748169571,-26
349.3250178417602,-29
350.34703161032849,-28
351.36884882579034,-26
352.39046952652461,-49.666667938232422
353.41189375090107,-16.666666030883789
354.43312153727675,-34.666667938232422
355.45415292401049,-21.666666030883789
356.47498794944113,-21
357.49562665190388,-36.333332061767578
358.51606906973029,-33.666667938232422
359.53631524122466,-18
360.55636520471126,-29.333333969116211
361.576218998478,-26.666666030883789
362.59587666081825,-24.333333969116211
363.6153382300181,-28.333333969116211
364.63460374434362,-23.333333969116211
365.65367324206454,-48
366.67254676143239,-21
367.69122434069686,-23.333333969116211
368.70970601810041,-20.333333969116211
369.7279918318618,-23.666666030883789
370.74608182021075,-43.333332061767578
371.7639760213533,-37.666667938232422
372.78167447349733,-20
373.79917721483071,-30.333333969116211
374.81648428354674,-37
375.8335957178133,-16.333333969116211
376.85051155580732,-23
377.86723183568211,-32.333332061767578
378.88375659558915,-33.666667938232422
379.90008587367265,-19
380.91621970806045,-44.666667938232422
381.932158136884,-48.666667938232422
382.94790119825484,-18.333333969116211
383.96344893028072,-33.666667938232422
384.97880137105676,-37.666667938232422
385.99395855867624,-28
387.0089205312197,-15
388.02368732675495,-30.333333969116211
389.03825898334981,-9
390.05263553905752,-18
391.06681703192226,-24
392.08080349998454,-21
393.09459498126671,-38.333332061767578
394.10819151379292,-32
395.12159313558004,-33.333332061767578
396.13479988461768,-40.666667938232422
397.14781179890815,-32
398.16062891643014,-22
399.17325127516779,-3.6666667461395264
400.18567891308157,-40.333332061767578
401.19791186813563,-35.666667938232422
402.20995017827954,-19.666666030883789
403.22179388145014,-30.666666030883789
404.23344301558427,-23.666666030883789
405.24489761860423,-43
406.256157728425,-28.666666030883789
407.26722338295986,-35
408.27809462009827,-28.666666030883789
409.28877147773528,-31.666666030883789
410.29925399374588,-24.666666030883789
411.30954220601052,-34.666667938232422
412.31963615238783,-25.333333969116211
413.3295358707328,-21.666666030883789
414.33924139889314,-36.666667938232422
415.348752774702,-12.333333015441895
416.35807003599439,-53.666667938232422
417.36719322058889,-12.333333015441895
418.3761223662932,-16.666666030883789
419.38485751091685,-22.333333969116211
420.39339869224932,-30
421.4017459480765,-3.3333332538604736
422.4098993161806,-44.666667938232422
423.41785883432567,-29.666666030883789
424.42562454027211,-9.3333330154418945
425.43319647177304,-27.666666030883789
426.44057466656886,-32
427.44775916239269,-35.666667938232422
428.45474999697581,-16.333333969116211
429.46154720802588,-19
430.46815083326146,-26
431.474560910372,-28.333333969116211
432.48077747705611,-26.666666030883789
433.48680057099773,-35
434.4926302298627,-17
435.49826649132046,-34.666667938232422
436.50370939302593,-17.333333969116211
437.50895897263217,-50.666667938232422
438.5140152677759,-32.333332061767578
439.51887831608292,-24.666666030883789
440.52354815518265,-25.333333969116211
441.52802482268817,-42
442.532308356198,-28
443.53639879331604,-18.666666030883789
444.54029617162814,-26
445.54400052871461,-23.666666030883789
446.54751190214483,-35.333332061767578
447.55083032947732,-30
448.553955848276,-36.333332061767578
449.55688849607577,-28.333333969116211
450.55962831042052,-50.666667938232422
451.56217532883238,-37.333332061767578
452.56452958883892,-21
453.56669112794589,-38
454.56865998365174,-23.666666030883789
455.57043619345859,-36.666667938232422
456.57201979484853,-29
457.57341082529638,-18
458.57460932227514,-35.333332061767578
459.57561532323962,-19.666666030883789
460.57642886564281,-21.666666030883789
461.57704998692861,-31.333333969116211
462.57747872453183,-26.666666030883789
463.57771511587816,-34.333332061767578
464.57775919838059,-26
465.5776110094539,-27.666666030883789
466.57727058649289,-37
467.57673796689414,-18.666666030883789
468.5760131880379,-37.333332061767578
469.57509628729895,-23.333333969116211
470.57398730204477,-28.666666030883789
471.57268626963196,-26.666666030883789
472.57119322740982,-19.333333969116211
473.56950821272039,-30.666666030883789
474.56763126289479,-9.3333330154418945
475.56556241525323,-41
476.56330170711954,-38.666667938232422
477.5608491757921,-33.333332061767578
478.55820485857475,-31.666666030883789
479.55536879275314,-16.333333969116211
480.55234101561109,-54
481.54912156442151,-15.666666984558105
482.54571047644822,-19.333333969116211
483.54210778894412,-20.333333969116211
484.5383135391603,-19.333333969116211
485.53432776433874,-35.666667938232422
486.53015050170507,-60
487.52578178848125,-12.666666984558105
488.521221661882,-17.333333969116211
489.51647015911294,-38.333332061767578
490.511527317376,-21.333333969116211
491.50639317384957,-16.333333969116211
492.50106776571556,-20.666666030883789
493.49555113015049,-39.666667938232422
494.48984330431631,-28
495.48394432536406,-19
496.477854230443,-50
497.47157305668588,-11
498.46510084122747,-28
499.45843762119148,-20
500.45158343368166,-22.666666030883789
501.44453831580358,-12.666666984558105
502.43730230465735,-36
503.4298754373267,-35
504.42225775089173,-24.666666030883789
505.41444928242527,-30.333333969116211
506.40645006898194,-31.666666030883789
507.39826014762366,-21.333333969116211
508.38987955538869,-22
509.38130832932075,-32
510.3725465064399,-16.666666030883789
511.36359412377169,-36.666667938232422
512.35445121832345,-22.333333969116211
513.345117827108,-30.666666030883789
514.33559398710713,-26
515.32587973531554,-23
516.31597510870961,-1
517.305880144253,-25
518.29559487891856,-21.666666030883789
519.2851193496499,-28.333333969116211
520.27445359339254,-36
521.2635976470865,-24.333333969116211
522.25255154765728,-31.333333969116211
523.24131533202308,-16
524.22988903709665,-22.666666030883789
525.21827269978348,-28
526.20646635697267,-31.333333969116211
527.19447004554968,-23.666666030883789
528.18228380239634,-24.666666030883789
529.16990766437993,-33.666667938232422
530.15734166836046,-19.333333969116211
531.14458585119428,-27
532.13164024971957,-10.666666984558105
533.11850490077813,-29.666666030883789
534.1051798411936,-18.333333969116211
535.09166510778778,-22.666666030883789
536.0779607373679,-30.333333969116211
537.06406676674123,-29.333333969116211
538.04998323269865,-27
539.03571017202739,-18.666666030883789
540.02124762150379,-31.666666030883789
541.00659561790053,-27.666666030883789
541.99175419797393,-13
542.97672339848032,-16.666666030883789
543.96150325615963,-16.666666030883789
544.94609380775364,-39.666667938232422
545.93049508998593,-21
546.91470713957824,-24.666666030883789
547.89872999324143,-23.666666030883789
548.88256368767543,-26
549.86620825957834,-20.333333969116211
550.84966374563555,-23.666666030883789
551.83293018252334,-39
552.81600760691072,-18.333333969116211
553.79889605546123,-22.333333969116211
554.78159556482933,-34
555.76410617165857,-17
556.74642791258339,-39.333332061767578
557.72856082423277,-29.333333969116211
558.71050494323026,-18.333333969116211
559.692260306183,-36.333332061767578
560.67382694969274,-32.333332061767578
561.65520491036477,-21.666666030883789
562.63639422477536,-21.666666030883789
563.617394929508,-18.666666030883789
564.59820706113169,-38
565.5788306562099,-3.6666667461395264
566.55926575129524,-21.666666030883789
567.53951238293848,-36.666667938232422
568.51957058766675,-30.333333969116211
569.49944040201626,-21.666666030883789
570.47912186250869,-51.333332061767578
571.45861500565115,-7
572.43791986795441,-16.666666030883789
573.417036485911,-26
574.3959648960099,-14.666666984558105
575.37470513472908,-25
576.35325723854476,-37
577.3316212439131,-13
578.309797187294,-21.666666030883789
579.28778510513439,-14.333333015441895
580.26558503387241,-32.666667938232422
581.24319700993874,-30.333333969116211
582.22062106975318,-22
583.1978572497319,-23.333333969116211
584.17490558627833,-19
585.15176611579591,-19.333333969116211
586.12843887466624,-12
587.1049238992764,-38
588.08122122599343,-26.333333969116211
589.05733089119167,-23.666666030883789
590.03325293122,-36.666667938232422
591.00898738242722,-12
591.98453428115681,-30.333333969116211
592.95989366373578,-26.666666030883789
593.93506556649481,-32.666667938232422
594.91005002574457,-19.333333969116211
595.88484707779207,-17
596.85945675894072,-35.666667938232422
597.83387910547935,-27
598.808114153695,-33.333332061767578
599.78216193985281,-22.666666030883789
600.7560225002253,-27.666666030883789
601.729695871074,-18.666666030883789
602.70318208864228,-24
603.67648118917714,-29.333333969116211
604.64959320891285,-29.333333969116211
605.62251818407458,-15.333333015441895
606.59525615087659,-33.333332061767578
607.56780714553315,-28
608.54017120424214,-14.666666984558105
609.51234836320145,-12.333333015441895
610.48433865859079,-38.666667938232422
611.45614212658984,-24
612.42775880336558,-22
613.39918872508315,-23
614.37043192788951,-13.333333015441895
615.34148844793526,-17.333333969116211
616.31235832134917,-18.333333969116211
617.28304158426727,-18.333333969116211
618.253538272802,-21
619.2238484230711,-23
620.19397207117981,-6.3333334922790527
621.16390925321321,-25.666666030883789
622.13366000527276,-24.333333969116211
623.103224363429,-32.666667938232422
624.07260236375441,-10.666666984558105
625.04179404231763,-26
626.01079943516561,-31
626.97961857835253,-29
627.94825150791621,-26.333333969116211
628.91669825988356,-14.666666984558105
629.8849588702833,-23.666666030883789
630.85303337512414,-23.666666030883789
631.8209218104148,-26.333333969116211
632.7886242121549,-18
633.75614061633678,-9.6666669845581055
634.72347105893823,-11
635.69061557593523,-20
636.65757420329646,-22.666666030883789
637.6243469769779,-35.666667938232422
638.59093393293,-22.666666030883789
639.55733510709615,-23
640.5235505354085,-8
641.48958025379216,-41.333332061767578
642.45542429816669,-13
643.4210827044426,-20.666666030883789
644.38655550851945,-24.666666030883789
645.351842746295,-22
646.31694445364883,-9
647.28186066646231,-21.333333969116211
648.24659142060591,-18.666666030883789
649.21113675193737,-22.666666030883789
650.17549669631444,-19.333333969116211
651.13967128958211,-18
652.10366056757266,-3
653.067464566122,-31
654.03108332104784,-11
654.99451686816428,-13
655.95776524327266,7
656.920828482178,-40
657.88370662066518,-31
658.84639969451382,-16.666666030883789
659.80890773950159,-10.333333015441895
660.77123079139164,-20
661.733368885938,-42.666667938232422
662.69532205889118,-26.333333969116211
663.65709034599786,-19
664.61867378298484,-14
665.58007240558072,-24.666666030883789
666.54128624949954,-19.333333969116211
667.50231535045532,-26.333333969116211
668.46315974414392,-16
669.42381946626119,-13.666666984558105
670.38429455249025,-17.666666030883789
671.34458503851238,-35.666667938232422
672.30469095999615,-18
673.2646123525974,-11.666666984558105
674.224349251972,-4.6666665077209473
675.18390169377017,-36.333332061767578
676.14326971362243,-19.666666030883789
677.10245334716274,-29
678.0614526300069,-41
679.02026759777618,-44
679.97889828607,-8.3333330154418945
680.93734473048789,-21.333333969116211
681.89560696662011,-24
682.85368503004611,-30.666666030883789
683.81157895634169,-17.666666030883789
684.76928878106992,-6
