-777.87311982425126,18.333333969116211
-776.63374739947358,38
-775.39461482227671,43.666667938232422
-774.15572204389719,46.333332061767578
-772.91706901559337,38.333332061767578
-771.67865568863454,28.333333969116211
-770.44048201429,37
-769.20254794384346,47.666667938232422
-767.96485342860433,35
-766.7273984198855,27.333333969116211
-765.49018286900719,42
-764.25320672730777,10.333333015441895
-763.01646994613657,33.666667938232422
-761.77997247685744,33.666667938232422
-760.5437142708488,22.333333969116211
-759.307695279489,36.666667938232422
-758.07191545417118,33.666667938232422
-756.83637474631723,42
-755.601073107342,25.666666030883789
-754.36601048868215,28
-753.13118684178153,39.333332061767578
-751.89660211810587,14.666666984558105
-750.66225626912092,26.333333969116211
-749.42814924630693,31.666666030883789
-748.19428100116238,40.666667938232422
-746.960651485193,32.333332061767578
-745.72726064991912,46.666667938232422
-744.49410844686827,37.666667938232422
-743.26119482758622,48
-742.02851974362966,16.333333969116211
-740.79608314656616,49
-739.5638849879706,38
-738.331925219436,41
-737.10020379257367,40.333332061767578
-735.86872065898388,29.666666030883789
-734.63747577031063,54.333332061767578
-733.406469078187,33.666667938232422
-732.17570053426061,34
-730.94517009020092,50.333332061767578
-729.71487769768464,47
-728.48482330838851,41
-727.25500687402564,14.666666984558105
-726.02542834630549,38.666667938232422
-724.79608767694481,34.666667938232422
-723.56698481768581,34
-722.33811972027434,39.333332061767578
-721.10949233647079,46
-719.88110261805014,29.333333969116211
-718.652950516791,45
-717.42503598449366,38
-716.19735897296232,9
-714.96991943401918,30
-713.74271731949739,31.666666030883789
-712.515752581241,52
-711.28902517110146,48.333332061767578
-710.06253504095184,10.333333015441895
-708.83628214267264,40.333332061767578
-707.610266428148,40
-706.384487849291,40
-705.15894635801124,31.666666030883789
-703.93364190623652,14
-702.70857444590911,22
-701.48374392898586,42.333332061767578
-700.25915030741635,43.333332061767578
-699.03479353318289,27
-697.81067355827872,33.666667938232422
-696.58679033470071,29.666666030883789
-695.36314381444936,33
-694.1397339495652,44
-692.91656069207056,34.333332061767578
-691.69362399401689,36.333332061767578
-690.47092380745926,34.666667938232422
-689.24846008447821,38.666667938232422
-688.02623277714338,43.666667938232422
-686.80424183756077,58.666667938232422
-685.58248721782911,34
-684.360968870069,40.666667938232422
-683.13968674641546,42.666667938232422
-681.91864079900733,45.333332061767578
-680.69783097999425,43.666667938232422
-679.4772572415477,31.333333969116211
-678.25691953584283,52
-677.0368178150693,66.333335876464844
-675.81695203143136,44.333332061767578
-674.59732213714051,62.666667938232422
-673.37792808442282,15.666666984558105
-672.15876982551163,46
-670.9398473126621,37
-669.72116049812939,38.333332061767578
-668.50270933419051,33.666667938232422
-667.28449377312245,56
-666.0665137672313,42.333332061767578
-664.84876926881952,27.333333969116211
-663.63126023020413,24.333333969116211
-662.413986603724,52.666667938232422
-661.19694834172151,43
-659.9801453965465,31.333333969116211
-658.76357772057054,47
-657.54724526617247,23.666666030883789
-656.33114798573843,53.333332061767578
-655.11528583168,40
-653.89965875640155,30.333333969116211
-652.68426671233283,37.333332061767578
-651.46910965191455,33.666667938232422
-650.25418752759469,25.333333969116211
-649.03950029183216,36.666667938232422
-647.825047897104,45.666667938232422
-646.61083029589463,43
-645.39684744069928,24.666666030883789
-644.18309928402778,36
-642.96958577839359,36.666667938232422
-641.75630687633929,40.666667938232422
-640.54326253040745,39
-639.33045269314425,26.333333969116211
-638.117877317125,59
-636.90553635492142,27.333333969116211
-635.69342975913059,41.333332061767578
-634.481557482357,48
-633.26991947720853,35.333332061767578
-632.05851569631523,30
-630.84734609231418,60.666667938232422
-629.63641061784983,35.333332061767578
-628.4257092255848,66
-627.21524186819988,36.666667938232422
-626.00500849836862,50.666667938232422
-624.79500906879366,35
-623.58524353217763,48
-622.37571184124863,17.333333969116211
-621.1664139487275,45.333332061767578
-619.95734980736415,41.333332061767578
-618.74851936991581,44.666667938232422
-617.539922589136,44.333332061767578
-616.33155941781479,46.666667938232422
-615.12342980873473,34.333332061767578
-613.91553371470036,48.333332061767578
-612.70787108852346,23.333333969116211
-611.50044188302672,46.333332061767578
-610.29324605104739,41
-609.08628354543725,30
-607.87955431905175,29.333333969116211
-606.67305832475722,30.666666030883789
-605.46679551544912,47.666667938232422
-604.26076584400835,13
-603.05496926335218,40.333332061767578
-601.849405726387,35
-600.64407518604821,49.333332061767578
-599.438977595275,36.333332061767578
-598.234112907021,42.666667938232422
-597.02948107425073,52.666667938232422
-595.82508204993974,46
-594.62091578707441,34
-593.41698223864842,30
-592.21328135768454,44
-591.009813097191,54.333332061767578
-589.80657741020877,37
-588.60357424978247,31.666666030883789
-587.4008035689676,44
-586.19826532083425,45.333332061767578
-584.99595945845977,43
-583.793885934936,39.666667938232422
-582.5920447033659,31.666666030883789
-581.39043571686307,45.333332061767578
-580.18905892855764,38.333332061767578
-578.98791429158518,26.666666030883789
-577.78700175909034,33.666667938232422
-576.58632128423778,35.333332061767578
-575.38587282020308,52
-574.1856563201618,16
-572.98567173731681,48.333332061767578
-571.78591902487278,44.333332061767578
-570.58639813603986,42.666667938232422
-569.38710902406274,16.333333969116211
-568.18805164217156,39.333332061767578
-566.98922594362557,29.333333969116211
-565.790631881684,44
-564.59226940962253,46
-563.39413848073127,33.666667938232422
-562.19623904831133,27.333333969116211
-560.99857106566742,35.333332061767578
-559.80113448612792,40.666667938232422
-558.60392926301938,32.666667938232422
-557.40695534968654,45
-556.21021269949415,41.333332061767578
-555.0137012658015,33
-553.81742100199153,53
-552.62137186145628,25.333333969116211
-551.4255537975896,36
-550.22996676381626,20.666666030883789
-549.03461071355377,45.666667938232422
-547.8394856002451,31.333333969116211
-546.64459137733138,43.333332061767578
-545.449927998272,28.666666030883789
-544.25549541654073,30
-543.06129358562066,50
-541.86732245900566,23.333333969116211
-540.67358199019873,19.333333969116211
-539.48007213271376,42.666667938232422
-538.28679284007922,44
-537.09374406584539,32
-535.900925763548,23
-534.70833788675736,32.333332061767578
-533.51598038904558,37.666667938232422
-532.32385322399932,30.666666030883789
-531.13195634520889,49
-529.94028970629006,32
-528.74885326085314,24.666666030883789
-527.55764696253573,43.666667938232422
-526.36667076497724,40.666667938232422
-525.17592462183165,34
-523.985408486762,53.333332061767578
-522.79512231344415,39.333332061767578
-521.60506605556839,40.333332061767578
-520.41523966682871,41.333332061767578
-519.22564310093912,33
-518.0362763116209,28.666666030883789
-516.84713925260257,40.666667938232422
-515.65823187763453,52.333332061767578
-514.46955414046715,44.666667938232422
-513.28110599486718,53.666667938232422
-512.09288739461954,21.333333969116211
-510.90489829350736,20.333333969116211
-509.71713864533194,36
-508.52960840390369,51.333332061767578
-507.3423075230512,28.333333969116211
-506.15523595660488,24.666666030883789
-504.96839365841697,23.333333969116211
-503.78178058233607,44.666667938232422
-502.59539668223624,35.666667938232422
-501.4092419119952,46.333332061767578
-500.223316225507,20.333333969116211
-499.0376195766712,32.666667938232422
-497.85215191940188,55.666667938232422
-496.666913207624,32
-495.48190339527719,43.333332061767578
-494.29712243630638,36.333332061767578
-493.11257028467116,43.333332061767578
-491.928246894342,35
-490.7441522193003,50.333332061767578
-489.56028621353471,44.666667938232422
-488.37664883105754,32.333332061767578
-487.19324002587746,53
-486.01005975202315,36.666667938232422
-484.8271079635324,26
-483.6443846144557,49.666667938232422
-482.46188965885085,49.666667938232422
-481.27962305079018,42.666667938232422
-480.09758474435512,24.666666030883789
-478.91577469364165,34
-477.73419285275304,39.333332061767578
-476.55283917580709,28
-475.37171361693436,27
-474.19081613026719,55
-473.010146669958,31.333333969116211
-471.82970519017181,47
-470.64949164507379,33.666667938232422
-469.46950598885633,40.333332061767578
-468.28974817570452,39.666667938232422
-467.1102181598344,39.333332061767578
-465.93091589545475,51.666667938232422
-464.75184133679977,46
-463.57299443810552,27.333333969116211
-462.39437515362624,48.666667938232422
-461.2159834376198,34.666667938232422
-460.03781924436043,29.333333969116211
-458.85988252813513,39.333332061767578
-457.68217324323632,25
-456.50469134396917,54.666667938232422
-455.32743678465886,58
-454.15040951962692,46.666667938232422
-452.97360950321672,45.333332061767578
-451.79703668977709,39.666667938232422
-450.62069103367321,39
-449.4445724892721,40
-448.26868101096989,22.666666030883789
-447.09301655315357,37
-445.9175790702302,48
-444.74236851661954,35.666667938232422
-443.56738484675407,41
-442.39262801506811,47
-441.21809797601236,37.333332061767578
-440.0437946840575,55.666667938232422
-438.86971809366878,41.333332061767578
-437.69586815933872,22.666666030883789
-436.52224483555256,66
-435.34884807682647,22.333333969116211
-434.17567783767481,56
-433.00273407262466,31.666666030883789
-431.83001673621948,42
-430.65752578300453,45
-429.4852611675542,35.333332061767578
-428.31322284443013,43
-427.14141076821943,36.333332061767578
-425.96982489351649,14
-424.79846517493388,38.666667938232422
-423.62733156708055,24.333333969116211
-422.45642402459453,41.666667938232422
-421.28574250211022,45.333332061767578
-420.1152869542766,38.666667938232422
-418.94505733575534,59.666667938232422
-417.77505360122632,27.666666030883789
-416.60527570536397,31.333333969116211
-415.43572360287,38.333332061767578
-414.26639724844608,44.333332061767578
-413.09729659681216,30
-411.92842160268992,33
-410.7597722208302,34.666667938232422
-409.59134840596926,40.666667938232422
-408.42315011287792,48.666667938232422
-407.2551772963252,41.333332061767578
-406.087429911091,52
-404.9199079119735,40.666667938232422
-403.75261125377619,36.666667938232422
-402.58553989131542,21.333333969116211
-401.41869377941293,38.333332061767578
-400.25207287291232,39.333332061767578
-399.08567712666627,40.666667938232422
-397.919506495522,38.666667938232422
-396.75356093436312,36.666667938232422
-395.58784039806596,38
-394.42234484151959,40.666667938232422
-393.25707421963307,35.333332061767578
-392.09202848732275,57.333332061767578
-390.92720759950862,46.333332061767578
-389.76261151112521,50.666667938232422
-388.59824017713072,29
-387.43409355247422,40.333332061767578
-386.27017159212846,50.666667938232422
-385.10647425107527,15
-383.94300148430193,35.666667938232422
-382.77975324681393,41.666667938232422
-381.616729493624,27
-380.453930179754,22
-379.29135526024038,41
-378.129004690134,35.666667938232422
-376.96687842448227,43.666667938232422
-375.80497641835791,29.333333969116211
-374.64329862683917,19
-373.4818450050152,43.333332061767578
-372.32061550798426,41
-371.15961009086277,41
-369.99882870877082,39.666667938232422
-368.83827131683756,17.333333969116211
-367.677937870214,45.333332061767578
-366.51782832404751,34.333332061767578
-365.3579426335109,41.666667938232422
-364.19828075377518,47.666667938232422
-363.03884264003136,24.666666030883789
-361.87962824747046,38.333332061767578
-360.7206375313126,53.333332061767578
-359.56187044677063,32.333332061767578
-358.403326949081,30.666666030883789
-357.24500699348027,37.666667938232422
-356.08691053522307,45
-354.92903752956954,20
-353.771387931798,35.333332061767578
-352.61396169719228,28.666666030883789
-351.45675878105067,61.666667938232422
-350.29977913867333,39.333332061767578
-349.14302272538407,31.333333969116211
-347.98648949651215,41.666667938232422
-346.83017940739046,29.333333969116211
-345.67409241337191,72.666664123535156
-344.51822846982031,30.333333969116211
-343.36258753210313,41.666667938232422
-342.20716955560965,27.666666030883789
-341.05197449572188,43.666667938232422
-339.89700230785638,56.333332061767578
-338.74225294741518,24
-337.58772636983667,23.666666030883789
-336.43342253054652,46
-335.27934138499768,41.666667938232422
-334.12548288865037,20.666666030883789
-332.97184699696481,23.333333969116211
-331.81843366542853,33.333332061767578
-330.66524284953266,28.666666030883789
-329.51227450476654,39
-328.35952858665769,41.333332061767578
-327.20700505071909,35.333332061767578
-326.05470385248555,22
-324.90262494750459,32.333332061767578
-323.75076829132558,20.666666030883789
-322.59913383951789,54.333332061767578
-321.44772154765633,32.333332061767578
-320.29653137132846,42.333332061767578
-319.14556326613092,38.333332061767578
-317.99481718767311,29.333333969116211
-316.84429309157531,32
-315.69399093346874,29
-314.54391066899007,31.333333969116211
-313.39405225379596,32.666667938232422
-312.24441564354129,46.333332061767578
-311.09500079390455,45
-309.94580766056788,23
-308.79683619922253,68
-307.64808636558337,35
-306.49955811535619,37.666667938232422
-305.35125140426862,32.666667938232422
-304.203166188061,51
-303.05530242247733,53.666667938232422
-301.90766006327794,54.333332061767578
-300.76023906623413,21.666666030883789
-299.61303938712081,53
-298.46606098173288,44.333332061767578
-297.31930380586527,34.666667938232422
-296.17276781533837,53.333332061767578
-295.02645296596893,39
-293.88035921359551,56.333332061767578
-292.73448651404942,43
-291.58883482319834,35.666667938232422
-290.44340409690449,49.666667938232422
-289.29819429103554,21
-288.15320536148647,44.666667938232422
-287.0084372641486,30
-285.86388995493689,46.666667938232422
-284.7195633897627,39.666667938232422
-283.57545752455371,54.666667938232422
-282.431572315254,25
-281.28790771781496,36.666667938232422
-280.1444636881879,32
-279.00124018235692,52
-277.8582371562934,38.333332061767578
-276.71545456599597,30.333333969116211
-275.57289236746692,48
-274.43055051671945,35
-273.28842896977221,43.333332061767578
-272.14652768267115,42.333332061767578
-271.00484661145128,52.666667938232422
-269.86338571217493,56.333332061767578
-268.72214494090622,44.333332061767578
-267.581124253722,38
-266.44032360671372,28
-265.29974295597458,58.666667938232422
-264.159382257616,59
-263.01924146776037,31.333333969116211
-261.87932054252815,63.666667938232422
-260.73961943807444,64.333335876464844
-259.60013811053796,33.666667938232422
-258.46087651608468,53.666667938232422
-257.32183461088971,62.333332061767578
-256.18301235113358,57
-255.04440969300595,45
-253.90602659271462,65.333335876464844
-252.76786300647473,46.333332061767578
-251.62991889051045,67
-250.49219420105146,66.333335876464844
-249.35468889435288,24.666666030883789
-248.217402926668,53.333332061767578
-247.08033625425924,70
-245.94348883341445,58.333332061767578
-244.80686062040877,45
-243.67045157154826,69
-242.53426164314442,48
-241.39829079150877,50.666667938232422
-240.26253897297829,59.333332061767578
-239.12700614388814,52.333332061767578
-237.99169226059348,44.333332061767578
-236.85659727945676,64.333335876464844
-235.72172115684771,58.333332061767578
-234.58706384914331,55
-233.4526253127442,51.666667938232422
-232.31840550405468,54.333332061767578
-231.18440437947902,52.666667938232422
-230.05062189545242,65.333335876464844
-228.91705800840282,93.666664123535156
-227.78371267477996,54.666667938232422
-226.65058585103725,65
-225.51767749363898,56.333332061767578
-224.38498755906403,76.666664123535156
-223.2525160037967,71.666664123535156
-222.1202627843395,80.666664123535156
-220.98822785719858,78.666664123535156
-219.85641117888918,53
-218.7248127059429,75
-217.59343239489681,69.666664123535156
-216.46227020230072,77.333335876464844
-215.3313260847226,47.666667938232422
-214.20059999872137,94.333335876464844
-213.07009190087956,69.333335876464844
-211.9398017477979,79.333335876464844
-210.80972949606621,87
-209.67987510230523,67.333335876464844
-208.5502385231357,76
-207.42081971518564,86.333335876464844
-206.29161863510308,68.333335876464844
-205.16263523954149,68.333335876464844
-204.03386948516163,91.666664123535156
-202.90532132864428,66
-201.77699072666474,81.333335876464844
-200.64887763592742,83.333335876464844
-199.52098201313311,100
-198.39330381500076,70.666664123535156
-197.26584299825117,68
-196.13859951962695,83.333335876464844
-195.01157333587253,81.333335876464844
-193.88476440374143,95
-192.75817268001083,96.666664123535156
-191.63179812144881,82
-190.50564068485255,88
-189.3797003270156,77.666664123535156
-188.25397700474423,94.333335876464844
-187.12847067486291,94.666664123535156
-186.00318129420339,97.333335876464844
-184.87810881960104,94.666664123535156
-183.75325320790944,111
-182.62861441598398,115.66666412353516
-181.50419240070187,97.333335876464844
-180.37998711894033,87.666664123535156
-179.25599852759296,112.66666412353516
-178.13222658356062,107.66666412353516
-177.00867124376236,117.33333587646484
-175.88533246510815,111
-174.76221020454068,134.66667175292969
-173.63930441900084,139
-172.51661506544224,112.33333587646484
-171.39414210082759,123.66666412353516
-170.27188548212871,126
-169.14984516633558,140.66667175292969
-168.02802111043638,163.33332824707031
-166.90641327144112,145.33332824707031
-165.78502160636344,171.33332824707031
-164.66384607223154,157.66667175292969
-163.54288662607541,173
-162.4221432249451,153
-161.30161582589426,175
-160.18130438598928,163
-159.06120886230929,193.66667175292969
-157.94132921194432,173.33332824707031
-156.82166539198624,195.66667175292969
-155.70221735953965,198.33332824707031
-154.58298507173095,189.33332824707031
-153.46396848568111,211.66667175292969
-152.34516755853474,209.66667175292969
-151.22658224743282,208.33332824707031
-150.10821250953813,201
-148.99005830202077,218
-147.87211958205626,229.33332824707031
-146.75439630683832,244.33332824707031
-145.63688843355885,226.66667175292969
-144.51959591943705,226.66667175292969
-143.40251872168847,266.33334350585938
-142.28565679753956,271.33334350585938
-141.16901010423499,256
-140.05257859902849,262
-138.93636223917383,259.33334350585938
-137.82036098194294,301.33334350585938
-136.70457478462595,296.66665649414063
-135.58900360449843,310
-134.47364739887416,314.66665649414063
-133.35850612506329,310
-132.24357974038321,343.66665649414063
-131.12886820217136,315.66665649414063
-130.01437146776334,361.66665649414063
-128.90008949451476,340
-127.78602223979033,350
-126.67216966095839,372.33334350585938
-125.55853171540366,392.66665649414063
-124.44510836051813,351.33334350585938
-123.33189955371017,412.66665649414063
-122.2189052523845,365.33334350585938
-121.10612541397313,408
-119.9935599959008,442.66665649414063
-118.88120895561769,433.66665649414063
-117.76907225057403,446.66665649414063
-116.65714983823818,455
-115.54544167607855,461.66665649414063
-114.43394772158354,465.66665649414063
-113.32266793224335,527
-112.21160226556458,523.33331298828125
-111.10075067906291,512
-109.99011313026131,512
-108.87968957669545,519.66668701171875
-107.76947997590833,578.66668701171875
-106.65948428545926,539.66668701171875
-105.54970246290759,519.66668701171875
-104.44013446582903,555
-103.33078025181567,511.33334350585938
-102.22163977845048,548
-101.11271300335284,532.66668701171875
-100.00399988412755,557.33331298828125
-98.8955003784049,543.66668701171875
-97.787214443818812,588.66668701171875
-96.679142038015925,569.66668701171875
-95.571283118651991,611
-94.46363764339003,581.33331298828125
-93.356205569909434,613
-92.248986855895055,588
-91.141981459042654,578.66668701171875
-90.035189337055272,564.33331298828125
-88.928610447654137,558
-87.8222447485623,587
-86.716092197515536,555.66668701171875
-85.610152752264185,572
-84.504426370558576,585.66668701171875
-83.3989130101636,561.33331298828125
-82.29361262886232,549.66668701171875
-81.188525184439641,572.33331298828125
-80.083650634691367,621
-78.978988937416943,616.33331298828125
-77.8745400504431,667
-76.7703039315893,674
-75.666280538693172,714
-74.56246982959965,735.33331298828125
-73.45887176217002,788.33331298828125
-72.355486294265575,850
-71.2523133837658,886
-70.149352988557439,904.66668701171875
-69.046605066534539,939
-67.944069575602043,1021.6666870117188
-66.84174647367945,981.33331298828125
-65.739635718693535,939.33331298828125
-64.63773726857471,982.66668701171875
-63.5360510812734,1038.3333740234375
-62.434577114750937,1048
-61.3333153269632,1074.3333740234375
-60.232265675895178,1061.6666259765625
-59.131428119522752,1092
-58.030802615854554,1128.3333740234375
-56.930389122886481,1129.3333740234375
-55.830187598636257,1254.6666259765625
-54.730198001132521,1279
-53.630420288413006,1311.3333740234375
-52.530854418515446,1395.3333740234375
-51.431500349504859,1416.6666259765625
-50.332358039440805,1520
-49.233427446402857,1582.3333740234375
-48.134708528470583,1642.3333740234375
-47.036201243741743,1765
-45.937905550323194,1788.6666259765625
-44.839821406334522,1938.3333740234375
-43.74194876988804,1925
-42.64428759913244,2010
-41.5468378522055,2007.6666259765625
-40.449599487265004,2040.3333740234375
-39.352572462472381,2069
-38.255756736005424,2155.666748046875
-37.159152266047386,2138
-36.062759010790614,2288
-34.966576928443828,2258.333251953125
-33.8706059772212,2478.666748046875
-32.774846115338732,2569.666748046875
-31.679297301039696,2659.333251953125
-30.583959492563736,2765.666748046875
-29.488832648166863,2906.333251953125
-28.393916726110547,3022.333251953125
-27.299211684672628,3123
-26.204717482129126,3180.666748046875
-25.110434076774254,3234.333251953125
-24.016361426916774,3249.666748046875
-22.922499490865448,3233.333251953125
-21.828848226945411,3176.666748046875
-20.735407593489072,3203.333251953125
-19.642177548834297,3140
-18.549158051340783,3115.666748046875
-17.456349059368222,3070.666748046875
-16.363750531281767,2991.666748046875
-15.271362425470215,3131
-14.179184700326005,2940
-13.087217314247027,2890.666748046875
-11.995460225642091,2887.333251953125
-10.903913392940012,2901.666748046875
-9.8125767745696066,2940.333251953125
-8.7214503289651475,2898.333251953125
-7.6305340145827358,2966
-6.5398277898821107,2985.333251953125
-5.4493316133357439,2452.333251953125
-4.3590454434179264,1734.6666259765625
-3.26896923861932,915.66668701171875
-2.1791029574433196,249
-1.0894465583987767,54.666667938232422
-3.637978807091713E-12,55.666667938232422
1.0892367592168739,277.33334350585938
2.1782637607157085,876.66668701171875
3.2670810459494533,1601.6666259765625
4.3556886563619628,2417.666748046875
5.4440866333861777,2824
6.5322750184368488,2895
7.6202538529305457,2858.666748046875
8.7080231782692863,2863
9.7955830358478124,2885.333251953125
10.882933467048133,2928.666748046875
11.970074513241343,2984
13.0570062157949,3130.666748046875
14.143728616063527,3051
15.230241755389216,3072.333251953125
16.316545675103043,3143.333251953125
17.402640416532449,3199.666748046875
18.488526020995778,3231.666748046875
19.574202529791364,3287.333251953125
20.659669984221182,3397
21.744928425567196,3340.333251953125
22.82997789510955,3352.666748046875
23.914818434106564,3339
24.99945008382565,3332.666748046875
26.083872885503297,3236.333251953125
27.168086880381452,3221.666748046875
28.252092109691148,3064.666748046875
29.33588861464159,2996.666748046875
30.419476436449258,2830.333251953125
31.502855616305169,2690
32.586026195402155,2748.666748046875
33.668988214920319,2561.333251953125
34.751741716028846,2354.333251953125
35.834286739884192,2379.666748046875
36.916623327637353,2267.666748046875
37.998751520428414,2229
39.080671359392,2246
40.162382885640909,2159.666748046875
41.243886140291579,2219.333251953125
42.325181164447713,2155
43.406267999200281,2114.333251953125
44.4871466856257,2038.3333740234375
45.5678172648004,1954
46.648279777786229,1889
47.72853426563961,1839
48.8085807694024,1728
49.888419330107354,1648
50.968049988779967,1573.3333740234375
52.047472786436629,1492.6666259765625
53.126687764075541,1464.6666259765625
54.205694962698544,1398.3333740234375
55.284494423289289,1300.3333740234375
56.363086186827786,1376.6666259765625
57.44147029427404,1232.3333740234375
58.519646786589874,1248.6666259765625
59.597615704718919,1198.3333740234375
60.67537708960117,1194.6666259765625
61.752930982163889,1153.3333740234375
62.83027742332888,1168.3333740234375
63.90741645399612,1149.6666259765625
64.984348115074681,1107.3333740234375
66.061072447448169,1121.3333740234375
67.13758949199655,1063.6666259765625
68.213899289597975,1071.3333740234375
69.29000188109967,999.66668701171875
70.36589730736705,1010.3333129882813
71.441585609234608,933
72.517066827535018,875.33331298828125
73.592341003088222,842
74.667408176715981,811.33331298828125
75.742268389207311,795.33331298828125
76.816921681369422,771
77.891368093980418,767.33331298828125
78.965607667816585,679.33331298828125
80.039640443639655,707.33331298828125
81.113466462209544,723
82.187085764271615,709.66668701171875
83.260498390560315,645
84.333704381804637,656.66668701171875
85.40670377871902,703
86.479496622014267,639
87.552082952388446,663.33331298828125
88.624462810528712,668
89.6966362371113,655.33331298828125
90.76860327281247,669
91.840363958286616,679.33331298828125
92.911918334189977,693.33331298828125
93.983266441158776,716
95.054408319829236,706.66668701171875
96.12534401081939,699.33331298828125
97.19607355474,657.66668701171875
98.2665969922,700.33331298828125
99.336914363786491,684.66668701171875
100.40702571009024,622.66668701171875
101.47693107168197,630
102.54663048912334,668
103.61612400297781,676.66668701171875
104.68541165378701,651.66668701171875
105.75449348208713,639.33331298828125
106.82336952840706,659.33331298828125
107.89203983326297,644.66668701171875
108.96050443715831,626.33331298828125
110.02876338060378,631.33331298828125
111.09681670407736,611
112.16466444806247,600.33331298828125
113.23230665302981,544.33331298828125
114.2997433594428,594
115.36697460774849,560.66668701171875
116.43400043838665,524
117.50082089179705,554
118.56743600839945,545.33331298828125
119.63384582860272,487.66665649414063
120.70005039281386,478.33334350585938
121.76604974143083,476
122.83184391483519,484
123.89743295340486,470
124.96281689750322,462.33334350585938
126.02799578748636,417
127.09296966370857,427.66665649414063
128.15773856649867,437.66665649414063
129.22230253619455,443.66665649414063
130.28666161311048,410
131.35081583755345,428
132.414765249825,420.66665649414063
133.47850989022481,402
134.54204979901988,393.66665649414063
135.60538501649535,378.33334350585938
136.66851558290364,346.33334350585938
137.73144153850444,376
138.79416292353926,345.66665649414063
139.85667977824414,349
140.91899214284422,351
141.9811000575537,330
143.0430035625759,304.33334350585938
144.10470269811231,312.33334350585938
145.16619750435348,316.33334350585938
146.22748802146998,313.33334350585938
147.28857428963602,290
148.3494563490076,275.66665649414063
149.41013423973891,306.33334350585938
150.47060800196778,281.33334350585938
151.53087767582292,267.66665649414063
152.59094330143125,259.66665649414063
153.65080491890512,259.33334350585938
154.71046256834779,251.66667175292969
155.76991628984433,244.33332824707031
156.82916612349436,248
157.88821210936294,222
158.94705428751695,238.33332824707031
160.00569269801963,222.66667175292969
161.06412738090876,203.33332824707031
162.12235837622939,179.33332824707031
163.18038572400837,198.66667175292969
164.23820946425803,156
165.29582963700341,203.33332824707031
166.35324628222952,188.33332824707031
167.41045943993777,191
168.4674691501059,197.33332824707031
169.52427545270439,155.33332824707031
170.58087838770371,155.33332824707031
171.63727799505432,176.33332824707031
172.6934743146976,163.66667175292969
173.74946738657491,128.66667175292969
174.80525725060761,165
175.86084394671525,159.33332824707031
176.91622751480463,106.66666412353516
177.97140799477529,170
179.02638542651403,138
180.08115984989854,150.66667175292969
181.13573130480836,132.33332824707031
182.1900998310939,132.33332824707031
183.24426546861469,114.33333587646484
184.29822825721203,99
185.35198823671635,110.33333587646484
186.40554544695078,151.66667175292969
187.45889992773846,126
188.51205171887523,102.33333587646484
189.5650008601624,108.33333587646484
190.61774739138855,105
191.67029135232588,118.33333587646484
192.72263278274659,92.666664123535156
193.77477172241379,86.666664123535156
194.82670821106694,80
195.87844228846188,119.66666412353516
196.92997399431806,118
197.98130336836039,90.666664123535156
199.03243045030285,112
200.083355279854,111.33333587646484
201.13407789669873,98
202.18459834053465,96
203.23491665102665,99
204.28503286785053,91
205.33494703066026,94.666664123535156
206.38465917910617,104
207.43416935282403,107.33333587646484
208.48347759144417,102.66666412353516
209.53258393459691,90.333335876464844
210.58148842188348,87.666664123535156
211.63019109291054,118.33333587646484
212.67869198727021,99.666664123535156
213.726991144551,93
214.775088604325,114
215.82298440615341,110.33333587646484
216.8706785896029,89.666664123535156
217.91817119421466,92
218.96546225952443,90
220.01255182506975,108.33333587646484
221.05943993036635,88.333335876464844
222.10612661491905,101.66666412353516
223.15261191823993,81.666664123535156
224.19889587981743,89
225.24497853913635,87.666664123535156
226.29085993566514,82.666664123535156
227.33654010887221,69
228.38201909822055,93
229.42729694314221,58
230.47237368309288,90
231.51724935748462,87
232.56192400574764,83.333335876464844
233.60639766728673,56.666667938232422
234.65067038150482,88.666664123535156
235.69474218779396,62.666667938232422
236.73861312553527,80.333335876464844
237.78228323410804,85
238.82575255286974,54.666667938232422
239.86902112117787,71
240.9120889783826,60.333332061767578
241.95495616381777,62
242.99762271681357,67
244.04008867668745,61.333332061767578
245.08235408274959,56.666667938232422
246.1244189743029,58
247.16628339063755,63
248.20794737103279,61
249.24941095476788,56.666667938232422
250.29067418110571,62
251.33173708930008,56.666667938232422
252.37259971859567,63
253.41326210823536,89.666664123535156
254.45372429744384,61
255.49398632544035,73.333335876464844
256.53404823143683,62.333332061767578
257.57391005463069,41.666667938232422
258.61357183421751,45.333332061767578
259.65303360938196,76.333335876464844
260.69229541928871,50
261.73135730310787,60.333332061767578
262.77021929999864,33.666667938232422
263.80888144910386,53.333332061767578
264.84734378955909,45.666667938232422
265.88560636049988,73.333335876464844
266.92366920103996,31.333333969116211
267.9615323502876,76.333335876464844
268.99919584735289,63.333332061767578
270.03665973132047,55.333332061767578
271.07392404127677,49.333332061767578
272.1109888162955,52.333332061767578
273.14785409544129,62.333332061767578
274.18451991776965,36
275.22098632233428,58.666667938232422
276.25725334816525,44
277.29332103429442,70
278.32918941974458,46
279.36485854352395,49.666667938232422
280.40032844463531,67.333335876464844
281.43559916207232,54.666667938232422
282.4706707348214,35.333332061767578
283.50554320185074,33
284.540216602134,51
285.57469097462854,53
286.60896635827521,59.333332061767578
287.6430427920186,57
288.67692031479055,45
289.71059896550651,23
290.74407878308375,65.333335876464844
291.777359806425,58
292.81044207441846,21.333333969116211
293.84332562596137,65.666664123535156
294.87601049991827,65.333335876464844
295.90849673516095,38.333332061767578
296.94078437055396,47
297.97287344493816,23.333333969116211
299.00476399715808,59
300.03645606604368,52
301.06794969041584,21.333333969116211
302.09924490909361,31.333333969116211
303.13034176088149,54.666667938232422
304.16124028456943,32
305.1919405189492,28.666666030883789
306.222442502798,38
307.25274627488216,28.666666030883789
308.2828518739625,40
309.31275933879624,57.666667938232422
310.34246870811512,20
311.37198002066361,46.666667938232422
312.40129331515891,29.333333969116211
313.43040863031638,29.666666030883789
314.45932600484593,69
315.48804547744476,54.333332061767578
316.51656708679729,43.333332061767578
317.54489087158618,50.666667938232422
318.57301687048675,38.666667938232422
319.60094512215619,29.666666030883789
320.62867566524437,51
321.65620853840483,44.333332061767578
322.68354378026197,28.333333969116211
323.71068142945296,48.333332061767578
324.73762152458949,31
325.76436410428141,53
326.79090920712588,51
327.81725687171638,32
328.84340713663732,32.666667938232422
329.86936004045674,27
330.8951156217463,37.333332061767578
331.92067391905039,29.333333969116211
332.9460349709243,49
333.97119881590334,24.666666030883789
334.99616549251732,40.666667938232422
336.02093503928518,35
337.04550749471673,33.333332061767578
338.06988289731453,38.333332061767578
339.09406128557566,33.333332061767578
340.11804269798085,45
341.14182717300719,40.666667938232422
342.16541474912265,20
343.18880546478249,36.666667938232422
344.21199935844015,44
345.23499646853088,43.333332061767578
346.25779683349174,36.333332061767578
347.2804004917416,44.666667938232422
348.30280748169571,35.333332061767578
349.3250178417602,48.333332061767578
350.34703161032849,42
351.36884882579034,49.333332061767578
352.39046952652461,23
353.41189375090107,35.333332061767578
354.43312153727675,29
355.45415292401049,28.666666030883789
356.47498794944113,32
357.49562665190388,45
358.51606906973029,25
359.53631524122466,29
360.55636520471126,44
361.576218998478,39.666667938232422
362.59587666081825,64.333335876464844
363.6153382300181,52.666667938232422
364.63460374434362,25.333333969116211
365.65367324206454,44.333332061767578
366.67254676143239,50
367.69122434069686,61.666667938232422
368.70970601810041,36
369.7279918318618,58
370.74608182021075,30.333333969116211
371.7639760213533,37
372.78167447349733,39
373.79917721483071,35.666667938232422
374.81648428354674,46.333332061767578
375.8335957178133,37
376.85051155580732,51.666667938232422
377.86723183568211,20.333333969116211
378.88375659558915,12.333333015441895
379.90008587367265,47.666667938232422
380.91621970806045,44.666667938232422
381.932158136884,45
382.94790119825484,42.666667938232422
383.96344893028072,46.666667938232422
384.97880137105676,10
385.99395855867624,55.666667938232422
387.0089205312197,56
388.02368732675495,20.666666030883789
389.03825898334981,61
390.05263553905752,40.666667938232422
391.06681703192226,42
392.08080349998454,27.666666030883789
393.09459498126671,34
394.10819151379292,37.666667938232422
395.12159313558004,22.333333969116211
396.13479988461768,36.666667938232422
397.14781179890815,58.333332061767578
398.16062891643014,48.666667938232422
399.17325127516779,58
400.18567891308157,40.333332061767578
401.19791186813563,43.333332061767578
402.20995017827954,36.666667938232422
403.22179388145014,53.666667938232422
404.23344301558427,51.666667938232422
405.24489761860423,34.666667938232422
406.256157728425,32.333332061767578
407.26722338295986,51.333332061767578
408.27809462009827,19.666666030883789
409.28877147773528,28.333333969116211
410.29925399374588,41.666667938232422
411.30954220601052,21.333333969116211
412.31963615238783,34
413.3295358707328,47.333332061767578
414.33924139889314,30
415.348752774702,51.666667938232422
416.35807003599439,60
417.36719322058889,37
418.3761223662932,53.333332061767578
419.38485751091685,51.333332061767578
420.39339869224932,50.333332061767578
421.4017459480765,46.333332061767578
422.4098993161806,27
423.41785883432567,11.666666984558105
424.42562454027211,53.666667938232422
425.43319647177304,27.666666030883789
426.44057466656886,24.666666030883789
427.44775916239269,35.333332061767578
428.45474999697581,30.666666030883789
429.46154720802588,50
430.46815083326146,45
431.474560910372,15
432.48077747705611,60.333332061767578
433.48680057099773,35
434.4926302298627,66.666664123535156
435.49826649132046,36
436.50370939302593,39
437.50895897263217,27.333333969116211
438.5140152677759,41.666667938232422
439.51887831608292,53.333332061767578
440.52354815518265,40
441.52802482268817,58.666667938232422
442.532308356198,28
443.53639879331604,54.333332061767578
444.54029617162814,42.333332061767578
445.54400052871461,33.333332061767578
446.54751190214483,41.333332061767578
447.55083032947732,54.666667938232422
448.553955848276,37
449.55688849607577,45.666667938232422
450.55962831042052,27
451.56217532883238,44.666667938232422
452.56452958883892,48.666667938232422
453.56669112794589,18.333333969116211
454.56865998365174,64.666664123535156
455.57043619345859,29.333333969116211
456.57201979484853,50.666667938232422
457.57341082529638,57
458.57460932227514,21.333333969116211
459.57561532323962,52.333332061767578
460.57642886564281,46.666667938232422
461.57704998692861,21.666666030883789
462.57747872453183,39.333332061767578
463.57771511587816,28
464.57775919838059,66.666664123535156
465.5776110094539,45
466.57727058649289,39.333332061767578
467.57673796689414,57.666667938232422
468.5760131880379,40.333332061767578
469.57509628729895,32.333332061767578
470.57398730204477,42
471.57268626963196,61.333332061767578
472.57119322740982,60.333332061767578
473.56950821272039,44.666667938232422
474.56763126289479,45
475.56556241525323,37.333332061767578
476.56330170711954,39.333332061767578
477.5608491757921,45.333332061767578
478.55820485857475,23.333333969116211
479.55536879275314,51.333332061767578
480.55234101561109,24
481.54912156442151,49.666667938232422
482.54571047644822,36
483.54210778894412,41.666667938232422
484.5383135391603,39.333332061767578
485.53432776433874,47
486.53015050170507,40.333332061767578
487.52578178848125,70
488.521221661882,49.666667938232422
489.51647015911294,44.666667938232422
490.511527317376,46.333332061767578
491.50639317384957,40.333332061767578
492.50106776571556,53.666667938232422
493.49555113015049,52
494.48984330431631,45.333332061767578
495.48394432536406,57
496.477854230443,14.333333015441895
497.47157305668588,69.333335876464844
498.46510084122747,51.333332061767578
499.45843762119148,38
500.45158343368166,49.333332061767578
501.44453831580358,40.333332061767578
502.43730230465735,53.666667938232422
503.4298754373267,28
504.42225775089173,25.666666030883789
505.41444928242527,38
506.40645006898194,46.666667938232422
507.39826014762366,44.666667938232422
508.38987955538869,34.666667938232422
509.38130832932075,45.666667938232422
510.3725465064399,55.333332061767578
511.36359412377169,43.666667938232422
512.35445121832345,39.333332061767578
513.345117827108,45.333332061767578
514.33559398710713,55
515.32587973531554,62.666667938232422
516.31597510870961,50.666667938232422
517.305880144253,56.333332061767578
518.29559487891856,47.333332061767578
519.2851193496499,80.666664123535156
520.27445359339254,37
521.2635976470865,55
522.25255154765728,56.666667938232422
523.24131533202308,56
524.22988903709665,48
525.21827269978348,55.666667938232422
526.20646635697267,45
527.19447004554968,24.666666030883789
528.18228380239634,45.666667938232422
529.16990766437993,40
530.15734166836046,46.666667938232422
531.14458585119428,30.666666030883789
532.13164024971957,56
533.11850490077813,39
534.1051798411936,51.666667938232422
535.09166510778778,39.333332061767578
536.0779607373679,48.333332061767578
537.06406676674123,43.666667938232422
538.04998323269865,32.333332061767578
539.03571017202739,35.333332061767578
540.02124762150379,59.333332061767578
541.00659561790053,20.666666030883789
541.99175419797393,55
542.97672339848032,58
543.96150325615963,40.666667938232422
544.94609380775364,26.666666030883789
545.93049508998593,52.666667938232422
546.91470713957824,46
547.89872999324143,23.666666030883789
548.88256368767543,36.333332061767578
549.86620825957834,64.333335876464844
550.84966374563555,28.333333969116211
551.83293018252334,56.666667938232422
552.81600760691072,81.666664123535156
553.79889605546123,33.666667938232422
554.78159556482933,57.666667938232422
555.76410617165857,52.333332061767578
556.74642791258339,28.666666030883789
557.72856082423277,30.666666030883789
558.71050494323026,64
559.692260306183,47
560.67382694969274,35.333332061767578
561.65520491036477,53
562.63639422477536,45.333332061767578
563.617394929508,44
564.59820706113169,51
565.5788306562099,54.333332061767578
566.55926575129524,43.666667938232422
567.53951238293848,38
568.51957058766675,48
569.49944040201626,49
570.47912186250869,38
571.45861500565115,58.333332061767578
572.43791986795441,30.666666030883789
573.417036485911,54.333332061767578
574.3959648960099,40.666667938232422
575.37470513472908,44.333332061767578
576.35325723854476,34.666667938232422
577.3316212439131,32.333332061767578
578.309797187294,56.666667938232422
579.28778510513439,53.666667938232422
580.26558503387241,38.666667938232422
581.24319700993874,49.333332061767578
582.22062106975318,44
583.1978572497319,39
584.17490558627833,46.666667938232422
585.15176611579591,33.666667938232422
586.12843887466624,43.333332061767578
587.1049238992764,29.333333969116211
588.08122122599343,50.666667938232422
589.05733089119167,36
590.03325293122,51.333332061767578
591.00898738242722,40.666667938232422
591.98453428115681,43.666667938232422
592.95989366373578,52
593.93506556649481,37
594.91005002574457,33.333332061767578
595.88484707779207,61
596.85945675894072,35.666667938232422
597.83387910547935,61
598.808114153695,25.333333969116211
599.78216193985281,33.333332061767578
600.7560225002253,46.333332061767578
601.729695871074,41.333332061767578
602.70318208864228,58.333332061767578
603.67648118917714,45.666667938232422
604.64959320891285,35.333332061767578
605.62251818407458,45.666667938232422
606.59525615087659,47.333332061767578
607.56780714553315,39.333332061767578
608.54017120424214,56.333332061767578
609.51234836320145,43.333332061767578
610.48433865859079,27
611.45614212658984,48
612.42775880336558,45
613.39918872508315,54.666667938232422
614.37043192788951,41.666667938232422
615.34148844793526,54
616.31235832134917,51.333332061767578
617.28304158426727,33.333332061767578
618.253538272802,58.333332061767578
619.2238484230711,49.333332061767578
620.19397207117981,64.333335876464844
621.16390925321321,36
622.13366000527276,42.333332061767578
623.103224363429,35.666667938232422
624.07260236375441,48.333332061767578
625.04179404231763,40.666667938232422
626.01079943516561,42.333332061767578
626.97961857835253,26
627.94825150791621,46.666667938232422
628.91669825988356,56.666667938232422
629.8849588702833,44
630.85303337512414,58.333332061767578
631.8209218104148,26.666666030883789
632.7886242121549,54.666667938232422
633.75614061633678,55.666667938232422
634.72347105893823,26
635.69061557593523,56
636.65757420329646,48
637.6243469769779,50
638.59093393293,39.333332061767578
639.55733510709615,62
640.5235505354085,46.666667938232422
641.48958025379216,55.333332061767578
642.45542429816669,23
643.4210827044426,41
644.38655550851945,52.333332061767578
645.351842746295,63.666667938232422
646.31694445364883,50.666667938232422
647.28186066646231,69.666664123535156
648.24659142060591,37
649.21113675193737,42.666667938232422
650.17549669631444,48
651.13967128958211,42
652.10366056757266,41.666667938232422
653.067464566122,37
654.03108332104784,82.333335876464844
654.99451686816428,38
655.95776524327266,31.333333969116211
656.920828482178,36.333332061767578
657.88370662066518,59.333332061767578
658.84639969451382,42.666667938232422
659.80890773950159,48
660.77123079139164,55
661.733368885938,42.333332061767578
662.69532205889118,34.333332061767578
663.65709034599786,46.333332061767578
664.61867378298484,43
665.58007240558072,44.333332061767578
666.54128624949954,39
667.50231535045532,27
668.46315974414392,45
669.42381946626119,47.666667938232422
670.38429455249025,52.333332061767578
671.34458503851238,37.333332061767578
672.30469095999615,47
673.2646123525974,36
674.224349251972,44
675.18390169377017,32.666667938232422
676.14326971362243,34
677.10245334716274,70.666664123535156
678.0614526300069,36
679.02026759777618,30.333333969116211
679.97889828607,44.333332061767578
680.93734473048789,56
681.89560696662011,54.333332061767578
682.85368503004611,53.333332061767578
683.81157895634169,28.666666030883789
684.76928878106992,51.666667938232422
