-777.87311982425126,49
-776.63374739947358,55.666667938232422
-775.39461482227671,71
-774.15572204389719,75.333335876464844
-772.91706901559337,69.666664123535156
-771.67865568863454,81.666664123535156
-770.44048201429,63.333332061767578
-769.20254794384346,56.666667938232422
-767.96485342860433,67
-766.7273984198855,55.666667938232422
-765.49018286900719,65
-764.25320672730777,54.666667938232422
-763.01646994613657,80
-761.77997247685744,79.666664123535156
-760.5437142708488,69
-759.307695279489,53
-758.07191545417118,63.333332061767578
-756.83637474631723,71
-755.601073107342,63.333332061767578
-754.36601048868215,69.666664123535156
-753.13118684178153,73.666664123535156
-751.89660211810587,87.666664123535156
-750.66225626912092,80
-749.42814924630693,63.333332061767578
-748.19428100116238,73
-746.960651485193,80.666664123535156
-745.72726064991912,70.666664123535156
-744.49410844686827,52.333332061767578
-743.26119482758622,67.666664123535156
-742.02851974362966,55
-740.79608314656616,89
-739.5638849879706,63
-738.331925219436,74.666664123535156
-737.10020379257367,75
-735.86872065898388,85.333335876464844
-734.63747577031063,72.666664123535156
-733.406469078187,72.666664123535156
-732.17570053426061,74
-730.94517009020092,93.333335876464844
-729.71487769768464,55
-728.48482330838851,76
-727.25500687402564,52
-726.02542834630549,65.666664123535156
-724.79608767694481,67
-723.56698481768581,76.333335876464844
-722.33811972027434,69.666664123535156
-721.10949233647079,81.333335876464844
-719.88110261805014,67.333335876464844
-718.652950516791,85
-717.42503598449366,67.333335876464844
-716.19735897296232,68
-714.96991943401918,70.666664123535156
-713.74271731949739,64
-712.515752581241,96
-711.28902517110146,80
-710.06253504095184,82.666664123535156
-708.83628214267264,87.666664123535156
-707.610266428148,74
-706.384487849291,67
-705.15894635801124,87
-703.93364190623652,79.666664123535156
-702.70857444590911,77
-701.48374392898586,64
-700.25915030741635,79
-699.03479353318289,55
-697.81067355827872,61
-696.58679033470071,64.666664123535156
-695.36314381444936,74.333335876464844
-694.1397339495652,62.333332061767578
-692.91656069207056,78.333335876464844
-691.69362399401689,83.333335876464844
-690.47092380745926,80.666664123535156
-689.24846008447821,73
-688.02623277714338,86.666664123535156
-686.80424183756077,57.666667938232422
-685.58248721782911,56
-684.360968870069,73.666664123535156
-683.13968674641546,93.333335876464844
-681.91864079900733,62.333332061767578
-680.69783097999425,82
-679.4772572415477,67.333335876464844
-678.25691953584283,78.666664123535156
-677.0368178150693,81.666664123535156
-675.81695203143136,92.333335876464844
-674.59732213714051,96.333335876464844
-673.37792808442282,63
-672.15876982551163,74.333335876464844
-670.9398473126621,90.666664123535156
-669.72116049812939,80.333335876464844
-668.50270933419051,74.333335876464844
-667.28449377312245,76.666664123535156
-666.0665137672313,69.666664123535156
-664.84876926881952,75
-663.63126023020413,87.666664123535156
-662.413986603724,61
-661.19694834172151,69.333335876464844
-659.9801453965465,66.666664123535156
-658.76357772057054,94
-657.54724526617247,69.666664123535156
-656.33114798573843,109
-655.11528583168,77.666664123535156
-653.89965875640155,78.333335876464844
-652.68426671233283,68.333335876464844
-651.46910965191455,82
-650.25418752759469,79
-649.03950029183216,75
-647.825047897104,77.666664123535156
-646.61083029589463,97.666664123535156
-645.39684744069928,65.333335876464844
-644.18309928402778,79.333335876464844
-642.96958577839359,82
-641.75630687633929,72
-640.54326253040745,88.333335876464844
-639.33045269314425,73.666664123535156
-638.117877317125,111.66666412353516
-636.90553635492142,62.666667938232422
-635.69342975913059,73.333335876464844
-634.481557482357,89.333335876464844
-633.26991947720853,84.666664123535156
-632.05851569631523,67.333335876464844
-630.84734609231418,87
-629.63641061784983,88.333335876464844
-628.4257092255848,87
-627.21524186819988,85.333335876464844
-626.00500849836862,82.333335876464844
-624.79500906879366,75
-623.58524353217763,86
-622.37571184124863,71
-621.1664139487275,94.666664123535156
-619.95734980736415,81
-618.74851936991581,95
-617.539922589136,66
-616.33155941781479,102
-615.12342980873473,72.666664123535156
-613.91553371470036,91
-612.70787108852346,81.333335876464844
-611.50044188302672,95
-610.29324605104739,67
-609.08628354543725,90.666664123535156
-607.87955431905175,65.333335876464844
-606.67305832475722,76
-605.46679551544912,82.333335876464844
-604.26076584400835,67.666664123535156
-603.05496926335218,89.666664123535156
-601.849405726387,88.333335876464844
-600.64407518604821,85.666664123535156
-599.438977595275,83.333335876464844
-598.234112907021,94.333335876464844
-597.02948107425073,104
-595.82508204993974,99.666664123535156
-594.62091578707441,38
-593.41698223864842,62
-592.21328135768454,79.666664123535156
-591.009813097191,86
-589.80657741020877,95.666664123535156
-588.60357424978247,49.666667938232422
-587.4008035689676,92.333335876464844
-586.19826532083425,90
-584.99595945845977,83.666664123535156
-583.793885934936,84.333335876464844
-582.5920447033659,77.666664123535156
-581.39043571686307,85.333335876464844
-580.18905892855764,81
-578.98791429158518,67.666664123535156
-577.78700175909034,85
-576.58632128423778,83.333335876464844
-575.38587282020308,85.666664123535156
-574.1856563201618,73.333335876464844
-572.98567173731681,80.666664123535156
-571.78591902487278,57.333332061767578
-570.58639813603986,97
-569.38710902406274,59
-568.18805164217156,83
-566.98922594362557,76
-565.790631881684,97.666664123535156
-564.59226940962253,78.333335876464844
-563.39413848073127,64.666664123535156
-562.19623904831133,76
-560.99857106566742,81
-559.80113448612792,76
-558.60392926301938,91.666664123535156
-557.40695534968654,88
-556.21021269949415,105
-555.0137012658015,100.33333587646484
-553.81742100199153,99
-552.62137186145628,61
-551.4255537975896,79
-550.22996676381626,81.333335876464844
-549.03461071355377,69
-547.8394856002451,107.66666412353516
-546.64459137733138,82
-545.449927998272,88
-544.25549541654073,67.666664123535156
-543.06129358562066,80
-541.86732245900566,81
-540.67358199019873,75.666664123535156
-539.48007213271376,85
-538.28679284007922,76
-537.09374406584539,69.666664123535156
-535.900925763548,92.333335876464844
-534.70833788675736,81.666664123535156
-533.51598038904558,107
-532.32385322399932,74.333335876464844
-531.13195634520889,97.333335876464844
-529.94028970629006,72.333335876464844
-528.74885326085314,92.333335876464844
-527.55764696253573,89
-526.36667076497724,79.333335876464844
-525.17592462183165,86.666664123535156
-523.985408486762,80.666664123535156
-522.79512231344415,89.333335876464844
-521.60506605556839,65
-520.41523966682871,78.333335876464844
-519.22564310093912,79.666664123535156
-518.0362763116209,88.666664123535156
-516.84713925260257,95.333335876464844
-515.65823187763453,84
-514.46955414046715,91.666664123535156
-513.28110599486718,99.333335876464844
-512.09288739461954,82
-510.90489829350736,65.333335876464844
-509.71713864533194,73.333335876464844
-508.52960840390369,95
-507.3423075230512,85.333335876464844
-506.15523595660488,88
-504.96839365841697,85
-503.78178058233607,130
-502.59539668223624,72.333335876464844
-501.4092419119952,79.666664123535156
-500.223316225507,79
-499.0376195766712,78.666664123535156
-497.85215191940188,95
-496.666913207624,102.33333587646484
-495.48190339527719,84.333335876464844
-494.29712243630638,81.666664123535156
-493.11257028467116,78
-491.928246894342,99.333335876464844
-490.7441522193003,76.333335876464844
-489.56028621353471,94
-488.37664883105754,56.666667938232422
-487.19324002587746,91.666664123535156
-486.01005975202315,78.666664123535156
-484.8271079635324,69
-483.6443846144557,104.66666412353516
-482.46188965885085,93.333335876464844
-481.27962305079018,81.666664123535156
-480.09758474435512,75.333335876464844
-478.91577469364165,82
-477.73419285275304,83
-476.55283917580709,71
-475.37171361693436,83.666664123535156
-474.19081613026719,80.333335876464844
-473.010146669958,61.333332061767578
-471.82970519017181,93.666664123535156
-470.64949164507379,102
-469.46950598885633,76.666664123535156
-468.28974817570452,80.666664123535156
-467.1102181598344,110.66666412353516
-465.93091589545475,104.66666412353516
-464.75184133679977,84
-463.57299443810552,96.666664123535156
-462.39437515362624,90
-461.2159834376198,74
-460.03781924436043,96
-458.85988252813513,95.666664123535156
-457.68217324323632,71.333335876464844
-456.50469134396917,87.666664123535156
-455.32743678465886,91.333335876464844
-454.15040951962692,89.333335876464844
-452.97360950321672,102.33333587646484
-451.79703668977709,106.33333587646484
-450.62069103367321,73.666664123535156
-449.4445724892721,105.33333587646484
-448.26868101096989,75
-447.09301655315357,58.333332061767578
-445.9175790702302,92.333335876464844
-444.74236851661954,93
-443.56738484675407,89.666664123535156
-442.39262801506811,110
-441.21809797601236,68.666664123535156
-440.0437946840575,94
-438.86971809366878,113.66666412353516
-437.69586815933872,75.333335876464844
-436.52224483555256,88.666664123535156
-435.34884807682647,74.666664123535156
-434.17567783767481,84.333335876464844
-433.00273407262466,98.333335876464844
-431.83001673621948,101.33333587646484
-430.65752578300453,84
-429.4852611675542,90.333335876464844
-428.31322284443013,96
-427.14141076821943,97.333335876464844
-425.96982489351649,73.666664123535156
-424.79846517493388,93
-423.62733156708055,115.66666412353516
-422.45642402459453,90.666664123535156
-421.28574250211022,108.66666412353516
-420.1152869542766,102
-418.94505733575534,88.333335876464844
-417.77505360122632,103
-416.60527570536397,95.333335876464844
-415.43572360287,81.666664123535156
-414.26639724844608,88.666664123535156
-413.09729659681216,84.666664123535156
-411.92842160268992,89.666664123535156
-410.7597722208302,88.333335876464844
-409.59134840596926,104.33333587646484
-408.42315011287792,112.66666412353516
-407.2551772963252,86.666664123535156
-406.087429911091,76.333335876464844
-404.9199079119735,89.333335876464844
-403.75261125377619,102.66666412353516
-402.58553989131542,94.666664123535156
-401.41869377941293,82
-400.25207287291232,89.666664123535156
-399.08567712666627,92.333335876464844
-397.919506495522,79.666664123535156
-396.75356093436312,91.333335876464844
-395.58784039806596,100.33333587646484
-394.42234484151959,106.66666412353516
-393.25707421963307,74
-392.09202848732275,90
-390.92720759950862,113.66666412353516
-389.76261151112521,96
-388.59824017713072,69.666664123535156
-387.43409355247422,103.66666412353516
-386.27017159212846,86.333335876464844
-385.10647425107527,87.333335876464844
-383.94300148430193,77
-382.77975324681393,95
-381.616729493624,83.666664123535156
-380.453930179754,91.666664123535156
-379.29135526024038,104
-378.129004690134,67.666664123535156
-376.96687842448227,118.66666412353516
-375.80497641835791,81.333335876464844
-374.64329862683917,83.666664123535156
-373.4818450050152,106.33333587646484
-372.32061550798426,80.333335876464844
-371.15961009086277,108.66666412353516
-369.99882870877082,70.666664123535156
-368.83827131683756,63.333332061767578
-367.677937870214,106.33333587646484
-366.51782832404751,92.666664123535156
-365.3579426335109,83.666664123535156
-364.19828075377518,122.66666412353516
-363.03884264003136,70.333335876464844
-361.87962824747046,79.666664123535156
-360.7206375313126,108.66666412353516
-359.56187044677063,111
-358.403326949081,73.666664123535156
-357.24500699348027,77.666664123535156
-356.08691053522307,89
-354.92903752956954,88.333335876464844
-353.771387931798,103.66666412353516
-352.61396169719228,105.33333587646484
-351.45675878105067,109
-350.29977913867333,105.33333587646484
-349.14302272538407,104.33333587646484
-347.98648949651215,69.666664123535156
-346.83017940739046,85
-345.67409241337191,118
-344.51822846982031,81.333335876464844
-343.36258753210313,91.666664123535156
-342.20716955560965,92.666664123535156
-341.05197449572188,80.666664123535156
-339.89700230785638,103.33333587646484
-338.74225294741518,75
-337.58772636983667,87.333335876464844
-336.43342253054652,93.666664123535156
-335.27934138499768,87.666664123535156
-334.12548288865037,93
-332.97184699696481,87.333335876464844
-331.81843366542853,92.333335876464844
-330.66524284953266,102
-329.51227450476654,86.666664123535156
-328.35952858665769,98.333335876464844
-327.20700505071909,81
-326.05470385248555,75.666664123535156
-324.90262494750459,112.66666412353516
-323.75076829132558,83.666664123535156
-322.59913383951789,75.333335876464844
-321.44772154765633,84.666664123535156
-320.29653137132846,92
-319.14556326613092,101.33333587646484
-317.99481718767311,80.333335876464844
-316.84429309157531,95.333335876464844
-315.69399093346874,90.666664123535156
-314.54391066899007,109
-313.39405225379596,67.333335876464844
-312.24441564354129,95
-311.09500079390455,73.333335876464844
-309.94580766056788,95.333335876464844
-308.79683619922253,97.666664123535156
-307.64808636558337,106
-306.49955811535619,85
-305.35125140426862,103.66666412353516
-304.203166188061,94
-303.05530242247733,112.66666412353516
-301.90766006327794,106
-300.76023906623413,78.333335876464844
-299.61303938712081,106.66666412353516
-298.46606098173288,115.33333587646484
-297.31930380586527,94.333335876464844
-296.17276781533837,83.666664123535156
-295.02645296596893,94
-293.88035921359551,87.333335876464844
-292.73448651404942,102.66666412353516
-291.58883482319834,97.333335876464844
-290.44340409690449,83
-289.29819429103554,92
-288.15320536148647,91.666664123535156
-287.0084372641486,89.666664123535156
-285.86388995493689,91.666664123535156
-284.7195633897627,78
-283.57545752455371,99.666664123535156
-282.431572315254,91.666664123535156
-281.28790771781496,118
-280.1444636881879,97.333335876464844
-279.00124018235692,96.666664123535156
-277.8582371562934,82.666664123535156
-276.71545456599597,108.66666412353516
-275.57289236746692,108.66666412353516
-274.43055051671945,96
-273.28842896977221,100
-272.14652768267115,102.33333587646484
-271.00484661145128,125
-269.86338571217493,135.66667175292969
-268.72214494090622,92
-267.581124253722,97
-266.44032360671372,99
-265.29974295597458,96
-264.159382257616,115
-263.01924146776037,79.666664123535156
-261.87932054252815,123
-260.73961943807444,93.666664123535156
-259.60013811053796,93.666664123535156
-258.46087651608468,110
-257.32183461088971,82.666664123535156
-256.18301235113358,98.333335876464844
-255.04440969300595,117
-253.90602659271462,114
-252.76786300647473,110.66666412353516
-251.62991889051045,116
-250.49219420105146,103.33333587646484
-249.35468889435288,84.666664123535156
-248.217402926668,103.33333587646484
-247.08033625425924,99.666664123535156
-245.94348883341445,111.66666412353516
-244.80686062040877,101.66666412353516
-243.67045157154826,102.33333587646484
-242.53426164314442,98.666664123535156
-241.39829079150877,134.33332824707031
-240.26253897297829,92.333335876464844
-239.12700614388814,109.33333587646484
-237.99169226059348,98.333335876464844
-236.85659727945676,98.333335876464844
-235.72172115684771,99.666664123535156
-234.58706384914331,126.33333587646484
-233.4526253127442,105.66666412353516
-232.31840550405468,105
-231.18440437947902,87.333335876464844
-230.05062189545242,117
-228.91705800840282,127.33333587646484
-227.78371267477996,99.666664123535156
-226.65058585103725,113
-225.51767749363898,106.66666412353516
-224.38498755906403,112.66666412353516
-223.2525160037967,127.33333587646484
-222.1202627843395,104
-220.98822785719858,83.333335876464844
-219.85641117888918,108
-218.7248127059429,104
-217.59343239489681,132.66667175292969
-216.46227020230072,114.33333587646484
-215.3313260847226,109.66666412353516
-214.20059999872137,127.66666412353516
-213.07009190087956,121.33333587646484
-211.9398017477979,93
-210.80972949606621,124.66666412353516
-209.67987510230523,118.66666412353516
-208.5502385231357,116.66666412353516
-207.42081971518564,120
-206.29161863510308,110.33333587646484
-205.16263523954149,134.66667175292969
-204.03386948516163,124
-202.90532132864428,127.66666412353516
-201.77699072666474,128
-200.64887763592742,151.66667175292969
-199.52098201313311,113
-198.39330381500076,106
-197.26584299825117,118.66666412353516
-196.13859951962695,118.33333587646484
-195.01157333587253,145
-193.88476440374143,104
-192.75817268001083,126.33333587646484
-191.63179812144881,140
-190.50564068485255,143.66667175292969
-189.3797003270156,113.66666412353516
-188.25397700474423,114.66666412353516
-187.12847067486291,111
-186.00318129420339,113.66666412353516
-184.87810881960104,118.33333587646484
-183.75325320790944,139.33332824707031
-182.62861441598398,145.33332824707031
-181.50419240070187,120.66666412353516
-180.37998711894033,120.66666412353516
-179.25599852759296,121.33333587646484
-178.13222658356062,134
-177.00867124376236,133
-175.88533246510815,141.33332824707031
-174.76221020454068,151
-173.63930441900084,179
-172.51661506544224,156
-171.39414210082759,151.33332824707031
-170.27188548212871,162.66667175292969
-169.14984516633558,175.66667175292969
-168.02802111043638,185
-166.90641327144112,172.33332824707031
-165.78502160636344,179
-164.66384607223154,173
-163.54288662607541,203.66667175292969
-162.4221432249451,209.33332824707031
-161.30161582589426,196.33332824707031
-160.18130438598928,182.33332824707031
-159.06120886230929,202
-157.94132921194432,175.66667175292969
-156.82166539198624,192.66667175292969
-155.70221735953965,225.66667175292969
-154.58298507173095,202
-153.46396848568111,185.66667175292969
-152.34516755853474,216.33332824707031
-151.22658224743282,173.66667175292969
-150.10821250953813,200.66667175292969
-148.99005830202077,215
-147.87211958205626,218
-146.75439630683832,215.66667175292969
-145.63688843355885,220
-144.51959591943705,219.66667175292969
-143.40251872168847,213.66667175292969
-142.28565679753956,248.66667175292969
-141.16901010423499,233
-140.05257859902849,237
-138.93636223917383,223
-137.82036098194294,223.66667175292969
-136.70457478462595,227.33332824707031
-135.58900360449843,249.66667175292969
-134.47364739887416,240.33332824707031
-133.35850612506329,249.66667175292969
-132.24357974038321,273.66665649414063
-131.12886820217136,263
-130.01437146776334,304.66665649414063
-128.90008949451476,298
-127.78602223979033,324.66665649414063
-126.67216966095839,334.66665649414063
-125.55853171540366,400.66665649414063
-124.44510836051813,356.66665649414063
-123.33189955371017,419.66665649414063
-122.2189052523845,424.66665649414063
-121.10612541397313,468.33334350585938
-119.9935599959008,494
-118.88120895561769,556
-117.76907225057403,603.66668701171875
-116.65714983823818,671.66668701171875
-115.54544167607855,719.33331298828125
-114.43394772158354,739.66668701171875
-113.32266793224335,794.66668701171875
-112.21160226556458,784.66668701171875
-111.10075067906291,824
-109.99011313026131,849.66668701171875
-108.87968957669545,822.33331298828125
-107.76947997590833,846.66668701171875
-106.65948428545926,804
-105.54970246290759,810.33331298828125
-104.44013446582903,789.33331298828125
-103.33078025181567,776
-102.22163977845048,798.33331298828125
-101.11271300335284,818.66668701171875
-100.00399988412755,787.66668701171875
-98.8955003784049,783
-97.787214443818812,774.33331298828125
-96.679142038015925,832
-95.571283118651991,835.33331298828125
-94.46363764339003,808.33331298828125
-93.356205569909434,784.66668701171875
-92.248986855895055,728
-91.141981459042654,703.66668701171875
-90.035189337055272,652.66668701171875
-88.928610447654137,588
-87.8222447485623,554
-86.716092197515536,519
-85.610152752264185,480
-84.504426370558576,472.66665649414063
-83.3989130101636,471.33334350585938
-82.29361262886232,445.66665649414063
-81.188525184439641,469.33334350585938
-80.083650634691367,445
-78.978988937416943,460
-77.8745400504431,451
-76.7703039315893,538.33331298828125
-75.666280538693172,550
-74.56246982959965,582.66668701171875
-73.45887176217002,624.33331298828125
-72.355486294265575,715.33331298828125
-71.2523133837658,803
-70.149352988557439,816.33331298828125
-69.046605066534539,886.66668701171875
-67.944069575602043,852.33331298828125
-66.84174647367945,866.33331298828125
-65.739635718693535,769.66668701171875
-64.63773726857471,774.66668701171875
-63.5360510812734,687.66668701171875
-62.434577114750937,688.33331298828125
-61.3333153269632,641.66668701171875
-60.232265675895178,643.66668701171875
-59.131428119522752,642.33331298828125
-58.030802615854554,596.33331298828125
-56.930389122886481,619.66668701171875
-55.830187598636257,632.66668701171875
-54.730198001132521,650.66668701171875
-53.630420288413006,620
-52.530854418515446,667.33331298828125
-51.431500349504859,639.33331298828125
-50.332358039440805,646.66668701171875
-49.233427446402857,638.33331298828125
-48.134708528470583,656.33331298828125
-47.036201243741743,636
-45.937905550323194,691.33331298828125
-44.839821406334522,727
-43.74194876988804,709.33331298828125
-42.64428759913244,707.66668701171875
-41.5468378522055,670.66668701171875
-40.449599487265004,766.66668701171875
-39.352572462472381,761.66668701171875
-38.255756736005424,708
-37.159152266047386,751.66668701171875
-36.062759010790614,779.66668701171875
-34.966576928443828,788.33331298828125
-33.8706059772212,798.66668701171875
-32.774846115338732,796.33331298828125
-31.679297301039696,831.33331298828125
-30.583959492563736,859
-29.488832648166863,876.66668701171875
-28.393916726110547,899.66668701171875
-27.299211684672628,880.33331298828125
-26.204717482129126,915.66668701171875
-25.110434076774254,981
-24.016361426916774,924
-22.922499490865448,962
-21.828848226945411,924.66668701171875
-20.735407593489072,943.66668701171875
-19.642177548834297,982.33331298828125
-18.549158051340783,1001.6666870117188
-17.456349059368222,994.33331298828125
-16.363750531281767,1176.6666259765625
-15.271362425470215,1338
-14.179184700326005,1520.6666259765625
-13.087217314247027,1671
-11.995460225642091,1643.3333740234375
-10.903913392940012,1541
-9.8125767745696066,1431.6666259765625
-8.7214503289651475,1415.3333740234375
-7.6305340145827358,1434.6666259765625
-6.5398277898821107,1455.3333740234375
-5.4493316133357439,1217.3333740234375
-4.3590454434179264,867.33331298828125
-3.26896923861932,467
-2.1791029574433196,115.33333587646484
-1.0894465583987767,10
-3.637978807091713E-12,-23.333333969116211
1.0892367592168739,105
2.1782637607157085,465.66665649414063
3.2670810459494533,814.66668701171875
4.3556886563619628,1190.3333740234375
5.4440866333861777,1389
6.5322750184368488,1363
7.6202538529305457,1455.3333740234375
8.7080231782692863,1423.3333740234375
9.7955830358478124,1549.3333740234375
10.882933467048133,1614
11.970074513241343,1723.3333740234375
13.0570062157949,1619.3333740234375
14.143728616063527,1417.6666259765625
15.230241755389216,1187.6666259765625
16.316545675103043,1058
17.402640416532449,991.33331298828125
18.488526020995778,1033.6666259765625
19.574202529791364,980
20.659669984221182,988
21.744928425567196,943
22.82997789510955,1022.6666870117188
23.914818434106564,963
24.99945008382565,930.33331298828125
26.083872885503297,921.33331298828125
27.168086880381452,961.33331298828125
28.252092109691148,896.66668701171875
29.33588861464159,915
30.419476436449258,864.66668701171875
31.502855616305169,834.33331298828125
32.586026195402155,867.33331298828125
33.668988214920319,824
34.751741716028846,780.33331298828125
35.834286739884192,742.66668701171875
36.916623327637353,776.66668701171875
37.998751520428414,762
39.080671359392,740.33331298828125
40.162382885640909,744
41.243886140291579,784
42.325181164447713,735.66668701171875
43.406267999200281,756.66668701171875
44.4871466856257,701.66668701171875
45.5678172648004,710
46.648279777786229,704.33331298828125
47.72853426563961,682.33331298828125
48.8085807694024,702.33331298828125
49.888419330107354,650
50.968049988779967,629.33331298828125
52.047472786436629,684.66668701171875
53.126687764075541,642
54.205694962698544,662
55.284494423289289,654.66668701171875
56.363086186827786,678
57.44147029427404,656.66668701171875
58.519646786589874,706.66668701171875
59.597615704718919,658.33331298828125
60.67537708960117,694.66668701171875
61.752930982163889,723
62.83027742332888,741.33331298828125
63.90741645399612,836
64.984348115074681,897
66.061072447448169,923
67.13758949199655,933.33331298828125
68.213899289597975,895.66668701171875
69.29000188109967,948.33331298828125
70.36589730736705,893
71.441585609234608,805
72.517066827535018,702.33331298828125
73.592341003088222,638.66668701171875
74.667408176715981,605.66668701171875
75.742268389207311,547.33331298828125
76.816921681369422,542.66668701171875
77.891368093980418,515.66668701171875
78.965607667816585,508.66665649414063
80.039640443639655,478.66665649414063
81.113466462209544,530
82.187085764271615,524
83.260498390560315,562.33331298828125
84.333704381804637,565.66668701171875
85.40670377871902,607.33331298828125
86.479496622014267,588.66668701171875
87.552082952388446,608.33331298828125
88.624462810528712,725.66668701171875
89.6966362371113,796.66668701171875
90.76860327281247,790.33331298828125
91.840363958286616,822.66668701171875
92.911918334189977,872.33331298828125
93.983266441158776,929
95.054408319829236,918.66668701171875
96.12534401081939,904.66668701171875
97.19607355474,892.33331298828125
98.2665969922,874
99.336914363786491,903
100.40702571009024,882
101.47693107168197,889
102.54663048912334,907.66668701171875
103.61612400297781,920
104.68541165378701,868
105.75449348208713,907.66668701171875
106.82336952840706,921.33331298828125
107.89203983326297,923.33331298828125
108.96050443715831,908
110.02876338060378,960
111.09681670407736,909.33331298828125
112.16466444806247,869
113.23230665302981,828.66668701171875
114.2997433594428,765.33331298828125
115.36697460774849,748
116.43400043838665,693.66668701171875
117.50082089179705,663.33331298828125
118.56743600839945,603
119.63384582860272,558.66668701171875
120.70005039281386,501.66665649414063
121.76604974143083,527.33331298828125
122.83184391483519,468.66665649414063
123.89743295340486,404
124.96281689750322,413
126.02799578748636,390.66665649414063
127.09296966370857,360
128.15773856649867,369
129.22230253619455,349.66665649414063
130.28666161311048,352
131.35081583755345,330.33334350585938
132.414765249825,293.33334350585938
133.47850989022481,316.33334350585938
134.54204979901988,299
135.60538501649535,287
136.66851558290364,287.33334350585938
137.73144153850444,313.33334350585938
138.79416292353926,273.33334350585938
139.85667977824414,275.66665649414063
140.91899214284422,273.33334350585938
141.9811000575537,279.66665649414063
143.0430035625759,249.66667175292969
144.10470269811231,234.66667175292969
145.16619750435348,256
146.22748802146998,266.33334350585938
147.28857428963602,243
148.3494563490076,237
149.41013423973891,222.66667175292969
150.47060800196778,228.66667175292969
151.53087767582292,229.66667175292969
152.59094330143125,252
153.65080491890512,233
154.71046256834779,207.66667175292969
155.76991628984433,228
156.82916612349436,236.33332824707031
157.88821210936294,222
158.94705428751695,258
160.00569269801963,207
161.06412738090876,171.66667175292969
162.12235837622939,195.33332824707031
163.18038572400837,225
164.23820946425803,195
165.29582963700341,194
166.35324628222952,170.33332824707031
167.41045943993777,201.66667175292969
168.4674691501059,207.33332824707031
169.52427545270439,188.66667175292969
170.58087838770371,199.66667175292969
171.63727799505432,188
172.6934743146976,196
173.74946738657491,173.66667175292969
174.80525725060761,173
175.86084394671525,178.33332824707031
176.91622751480463,170
177.97140799477529,168
179.02638542651403,149.33332824707031
180.08115984989854,146.33332824707031
181.13573130480836,182
182.1900998310939,161.66667175292969
183.24426546861469,166.33332824707031
184.29822825721203,158
185.35198823671635,140.33332824707031
186.40554544695078,165.66667175292969
187.45889992773846,148
188.51205171887523,122.33333587646484
189.5650008601624,146
190.61774739138855,143
191.67029135232588,146
192.72263278274659,129
193.77477172241379,151.66667175292969
194.82670821106694,105
195.87844228846188,151
196.92997399431806,141.66667175292969
197.98130336836039,138.33332824707031
199.03243045030285,133.33332824707031
200.083355279854,131
201.13407789669873,123.33333587646484
202.18459834053465,153.33332824707031
203.23491665102665,153.66667175292969
204.28503286785053,121
205.33494703066026,161.66667175292969
206.38465917910617,143.66667175292969
207.43416935282403,138.66667175292969
208.48347759144417,117
209.53258393459691,132.66667175292969
210.58148842188348,136.66667175292969
211.63019109291054,153
212.67869198727021,141.66667175292969
213.726991144551,136.66667175292969
214.775088604325,147
215.82298440615341,143.33332824707031
216.8706785896029,140
217.91817119421466,115.66666412353516
218.96546225952443,133.66667175292969
220.01255182506975,138.33332824707031
221.05943993036635,133.33332824707031
222.10612661491905,129
223.15261191823993,130.66667175292969
224.19889587981743,133.66667175292969
225.24497853913635,140.33332824707031
226.29085993566514,111.66666412353516
227.33654010887221,149.66667175292969
228.38201909822055,149.33332824707031
229.42729694314221,119
230.47237368309288,107
231.51724935748462,137.66667175292969
232.56192400574764,118.66666412353516
233.60639766728673,126.66666412353516
234.65067038150482,146.66667175292969
235.69474218779396,122.33333587646484
236.73861312553527,134.33332824707031
237.78228323410804,132.66667175292969
238.82575255286974,127.33333587646484
239.86902112117787,141
240.9120889783826,132.33332824707031
241.95495616381777,123.66666412353516
242.99762271681357,126
244.04008867668745,112.33333587646484
245.08235408274959,133.66667175292969
246.1244189743029,130.66667175292969
247.16628339063755,125.33333587646484
248.20794737103279,121.66666412353516
249.24941095476788,114.33333587646484
250.29067418110571,125.33333587646484
251.33173708930008,130.66667175292969
252.37259971859567,148.66667175292969
253.41326210823536,136.66667175292969
254.45372429744384,107
255.49398632544035,128.66667175292969
256.53404823143683,110.33333587646484
257.57391005463069,122
258.61357183421751,105.66666412353516
259.65303360938196,134.66667175292969
260.69229541928871,115
261.73135730310787,144.66667175292969
262.77021929999864,121.66666412353516
263.80888144910386,142
264.84734378955909,112
265.88560636049988,146.66667175292969
266.92366920103996,127
267.9615323502876,124.66666412353516
268.99919584735289,143.33332824707031
270.03665973132047,133.33332824707031
271.07392404127677,104.33333587646484
272.1109888162955,104.33333587646484
273.14785409544129,142.33332824707031
274.18451991776965,121
275.22098632233428,133.33332824707031
276.25725334816525,113
277.29332103429442,131
278.32918941974458,117.33333587646484
279.36485854352395,115
280.40032844463531,135.33332824707031
281.43559916207232,118.33333587646484
282.4706707348214,107
283.50554320185074,96.333335876464844
284.540216602134,112.66666412353516
285.57469097462854,129
286.60896635827521,110
287.6430427920186,163
288.67692031479055,121.66666412353516
289.71059896550651,120
290.74407878308375,117.33333587646484
291.777359806425,130.33332824707031
292.81044207441846,78.666664123535156
293.84332562596137,115.33333587646484
294.87601049991827,124
295.90849673516095,119
296.94078437055396,118
297.97287344493816,118.66666412353516
299.00476399715808,112.33333587646484
300.03645606604368,131.33332824707031
301.06794969041584,103
302.09924490909361,110
303.13034176088149,105.66666412353516
304.16124028456943,101
305.1919405189492,122.33333587646484
306.222442502798,118.66666412353516
307.25274627488216,110
308.2828518739625,112.33333587646484
309.31275933879624,104.33333587646484
310.34246870811512,97
311.37198002066361,137.33332824707031
312.40129331515891,120
313.43040863031638,90.666664123535156
314.45932600484593,128.66667175292969
315.48804547744476,108
316.51656708679729,131.33332824707031
317.54489087158618,115.33333587646484
318.57301687048675,131
319.60094512215619,117.66666412353516
320.62867566524437,134.33332824707031
321.65620853840483,129
322.68354378026197,132
323.71068142945296,110.66666412353516
324.73762152458949,128.33332824707031
325.76436410428141,119
326.79090920712588,140
327.81725687171638,113.66666412353516
328.84340713663732,134.33332824707031
329.86936004045674,99.666664123535156
330.8951156217463,123.33333587646484
331.92067391905039,123
332.9460349709243,129.66667175292969
333.97119881590334,110
334.99616549251732,109
336.02093503928518,115
337.04550749471673,121.33333587646484
338.06988289731453,117
339.09406128557566,114.66666412353516
340.11804269798085,115.33333587646484
341.14182717300719,115.33333587646484
342.16541474912265,110.66666412353516
343.18880546478249,109.33333587646484
344.21199935844015,111
345.23499646853088,106.33333587646484
346.25779683349174,95.666664123535156
347.2804004917416,117.33333587646484
348.30280748169571,129.33332824707031
349.3250178417602,118
350.34703161032849,96.333335876464844
351.36884882579034,107.33333587646484
352.39046952652461,103.66666412353516
353.41189375090107,131.66667175292969
354.43312153727675,96
355.45415292401049,111.66666412353516
356.47498794944113,137
357.49562665190388,124.33333587646484
358.51606906973029,119.33333587646484
359.53631524122466,120
360.55636520471126,121.66666412353516
361.576218998478,124.33333587646484
362.59587666081825,129.33332824707031
363.6153382300181,109.66666412353516
364.63460374434362,105.66666412353516
365.65367324206454,110.33333587646484
366.67254676143239,135.66667175292969
367.69122434069686,113.33333587646484
368.70970601810041,110.66666412353516
369.7279918318618,117.66666412353516
370.74608182021075,105.33333587646484
371.7639760213533,121.66666412353516
372.78167447349733,125.66666412353516
373.79917721483071,112.66666412353516
374.81648428354674,120
375.8335957178133,115
376.85051155580732,135
377.86723183568211,130.66667175292969
378.88375659558915,111.66666412353516
379.90008587367265,121.66666412353516
380.91621970806045,112.33333587646484
381.932158136884,109
382.94790119825484,111.33333587646484
383.96344893028072,109.33333587646484
384.97880137105676,121
385.99395855867624,128.66667175292969
387.0089205312197,140.33332824707031
388.02368732675495,118
389.03825898334981,117
390.05263553905752,104.33333587646484
391.06681703192226,116.66666412353516
392.08080349998454,104.33333587646484
393.09459498126671,143
394.10819151379292,115
395.12159313558004,105.66666412353516
396.13479988461768,96.666664123535156
397.14781179890815,106.33333587646484
398.16062891643014,123.66666412353516
399.17325127516779,139
400.18567891308157,108
401.19791186813563,121.66666412353516
402.20995017827954,115.66666412353516
403.22179388145014,131.33332824707031
404.23344301558427,105.33333587646484
405.24489761860423,126
406.256157728425,137
407.26722338295986,102.33333587646484
408.27809462009827,108.66666412353516
409.28877147773528,117
410.29925399374588,115.66666412353516
411.30954220601052,100.66666412353516
412.31963615238783,133.66667175292969
413.3295358707328,143.66667175292969
414.33924139889314,103.33333587646484
415.348752774702,127.66666412353516
416.35807003599439,98.666664123535156
417.36719322058889,136
418.3761223662932,137.66667175292969
419.38485751091685,114.33333587646484
420.39339869224932,127
421.4017459480765,137
422.4098993161806,108.66666412353516
423.41785883432567,100.33333587646484
424.42562454027211,132
425.43319647177304,121.66666412353516
426.44057466656886,113
427.44775916239269,136
428.45474999697581,119
429.46154720802588,125.33333587646484
430.46815083326146,109
431.474560910372,115
432.48077747705611,123.33333587646484
433.48680057099773,128
434.4926302298627,122.66666412353516
435.49826649132046,118.33333587646484
436.50370939302593,116.66666412353516
437.50895897263217,108.66666412353516
438.5140152677759,114
439.51887831608292,113
440.52354815518265,139.33332824707031
441.52802482268817,136.33332824707031
442.532308356198,120
443.53639879331604,137
444.54029617162814,128.33332824707031
445.54400052871461,109.33333587646484
446.54751190214483,114
447.55083032947732,126.33333587646484
448.553955848276,124.33333587646484
449.55688849607577,122
450.55962831042052,92.666664123535156
451.56217532883238,136.66667175292969
452.56452958883892,99
453.56669112794589,115
454.56865998365174,137
455.57043619345859,113
456.57201979484853,118.66666412353516
457.57341082529638,123.66666412353516
458.57460932227514,111.66666412353516
459.57561532323962,121
460.57642886564281,130
461.57704998692861,125.33333587646484
462.57747872453183,116.66666412353516
463.57771511587816,116.66666412353516
464.57775919838059,134.66667175292969
465.5776110094539,108.33333587646484
466.57727058649289,118.66666412353516
467.57673796689414,115
468.5760131880379,130.33332824707031
469.57509628729895,111.33333587646484
470.57398730204477,124
471.57268626963196,107.33333587646484
472.57119322740982,114
473.56950821272039,133.33332824707031
474.56763126289479,124.33333587646484
475.56556241525323,129.33332824707031
476.56330170711954,122.66666412353516
477.5608491757921,132
478.55820485857475,108.33333587646484
479.55536879275314,136.66667175292969
480.55234101561109,118.66666412353516
481.54912156442151,121.66666412353516
482.54571047644822,142.33332824707031
483.54210778894412,123.33333587646484
484.5383135391603,108.66666412353516
485.53432776433874,97.333335876464844
486.53015050170507,101.66666412353516
487.52578178848125,123
488.521221661882,137
489.51647015911294,99.666664123535156
490.511527317376,150.66667175292969
491.50639317384957,124.66666412353516
492.50106776571556,129.33332824707031
493.49555113015049,121.66666412353516
494.48984330431631,129
495.48394432536406,156.33332824707031
496.477854230443,130.66667175292969
497.47157305668588,141
498.46510084122747,116.66666412353516
499.45843762119148,131.33332824707031
500.45158343368166,111.66666412353516
501.44453831580358,108.33333587646484
502.43730230465735,120.66666412353516
503.4298754373267,117
504.42225775089173,120.33333587646484
505.41444928242527,84
506.40645006898194,112
507.39826014762366,134
508.38987955538869,113.66666412353516
509.38130832932075,104
510.3725465064399,107
511.36359412377169,120.66666412353516
512.35445121832345,106.66666412353516
513.345117827108,123.66666412353516
514.33559398710713,129
515.32587973531554,121
516.31597510870961,126
517.305880144253,101
518.29559487891856,136
519.2851193496499,138.66667175292969
520.27445359339254,124
521.2635976470865,145.66667175292969
522.25255154765728,100.33333587646484
523.24131533202308,135.66667175292969
524.22988903709665,130.33332824707031
525.21827269978348,138.66667175292969
526.20646635697267,102
527.19447004554968,129.66667175292969
528.18228380239634,100.66666412353516
529.16990766437993,120
530.15734166836046,129.33332824707031
531.14458585119428,123.33333587646484
532.13164024971957,129
533.11850490077813,105.66666412353516
534.1051798411936,130.33332824707031
535.09166510778778,109.33333587646484
536.0779607373679,116.66666412353516
537.06406676674123,121
538.04998323269865,131.66667175292969
539.03571017202739,102.66666412353516
540.02124762150379,134
541.00659561790053,124.66666412353516
541.99175419797393,148
542.97672339848032,122.33333587646484
543.96150325615963,146.66667175292969
544.94609380775364,137.66667175292969
545.93049508998593,108
546.91470713957824,124
547.89872999324143,119.66666412353516
548.88256368767543,130.66667175292969
549.86620825957834,140.33332824707031
550.84966374563555,113
551.83293018252334,120.33333587646484
552.81600760691072,120.66666412353516
553.79889605546123,108.66666412353516
554.78159556482933,110
555.76410617165857,135
556.74642791258339,109.33333587646484
557.72856082423277,120
558.71050494323026,135.66667175292969
559.692260306183,127.66666412353516
560.67382694969274,109.33333587646484
561.65520491036477,141.66667175292969
562.63639422477536,125.66666412353516
563.617394929508,128.33332824707031
564.59820706113169,131.33332824707031
565.5788306562099,155
566.55926575129524,113.33333587646484
567.53951238293848,99.666664123535156
568.51957058766675,139.66667175292969
569.49944040201626,120.33333587646484
570.47912186250869,109.33333587646484
571.45861500565115,136.33332824707031
572.43791986795441,155.33332824707031
573.417036485911,109.33333587646484
574.3959648960099,119
575.37470513472908,119.33333587646484
576.35325723854476,119.33333587646484
577.3316212439131,120.33333587646484
578.309797187294,123
579.28778510513439,153.66667175292969
580.26558503387241,106.66666412353516
581.24319700993874,103.33333587646484
582.22062106975318,115.66666412353516
583.1978572497319,111.33333587646484
584.17490558627833,134.33332824707031
585.15176611579591,115
586.12843887466624,108.33333587646484
587.1049238992764,114.33333587646484
588.08122122599343,150.33332824707031
589.05733089119167,123.66666412353516
590.03325293122,108.33333587646484
591.00898738242722,124
591.98453428115681,119.33333587646484
592.95989366373578,120
593.93506556649481,134.33332824707031
594.91005002574457,113.33333587646484
595.88484707779207,131.66667175292969
596.85945675894072,125
597.83387910547935,104.66666412353516
598.808114153695,124.66666412353516
599.78216193985281,111.66666412353516
600.7560225002253,113
601.729695871074,120
602.70318208864228,140.66667175292969
603.67648118917714,125.66666412353516
604.64959320891285,129
605.62251818407458,128
606.59525615087659,120.33333587646484
607.56780714553315,126
608.54017120424214,156
609.51234836320145,120
610.48433865859079,110.33333587646484
611.45614212658984,144.66667175292969
612.42775880336558,125.66666412353516
613.39918872508315,127.66666412353516
614.37043192788951,110.66666412353516
615.34148844793526,152.66667175292969
616.31235832134917,114
617.28304158426727,116.66666412353516
618.253538272802,124
619.2238484230711,118.66666412353516
620.19397207117981,153.33332824707031
621.16390925321321,116.66666412353516
622.13366000527276,106.33333587646484
623.103224363429,87.333335876464844
624.07260236375441,140
625.04179404231763,118
626.01079943516561,114.66666412353516
626.97961857835253,135.66667175292969
627.94825150791621,117.66666412353516
628.91669825988356,149
629.8849588702833,122.66666412353516
630.85303337512414,129.66667175292969
631.8209218104148,123.66666412353516
632.7886242121549,125.33333587646484
633.75614061633678,128
634.72347105893823,138.66667175292969
635.69061557593523,118.66666412353516
636.65757420329646,128.66667175292969
637.6243469769779,134
638.59093393293,129.33332824707031
639.55733510709615,135.33332824707031
640.5235505354085,137.33332824707031
641.48958025379216,124.33333587646484
642.45542429816669,129.33332824707031
643.4210827044426,107.66666412353516
644.38655550851945,132.66667175292969
645.351842746295,121.33333587646484
646.31694445364883,128.33332824707031
647.28186066646231,129.66667175292969
648.24659142060591,106.33333587646484
649.21113675193737,119
650.17549669631444,135.33332824707031
651.13967128958211,131
652.10366056757266,139.66667175292969
653.067464566122,101.33333587646484
654.03108332104784,133.33332824707031
654.99451686816428,111.66666412353516
655.95776524327266,125.33333587646484
656.920828482178,124
657.88370662066518,123.33333587646484
658.84639969451382,130.33332824707031
659.80890773950159,132.33332824707031
660.77123079139164,139.66667175292969
661.733368885938,114.66666412353516
662.69532205889118,119.66666412353516
663.65709034599786,141.66667175292969
664.61867378298484,146
665.58007240558072,125.66666412353516
666.54128624949954,137.66667175292969
667.50231535045532,116.33333587646484
668.46315974414392,127.33333587646484
669.42381946626119,129.33332824707031
670.38429455249025,110.33333587646484
671.34458503851238,115.66666412353516
672.30469095999615,125
673.2646123525974,121.33333587646484
674.224349251972,130.33332824707031
675.18390169377017,107
676.14326971362243,119.66666412353516
677.10245334716274,102
678.0614526300069,104
679.02026759777618,129
679.97889828607,117.33333587646484
680.93734473048789,132
681.89560696662011,114
682.85368503004611,124
683.81157895634169,129.33332824707031
684.76928878106992,134.66667175292969
