-777.87311982425126,-2.5999999046325684
-776.63374739947358,21.799999237060547
-775.39461482227671,15.600000381469727
-774.15572204389719,12.800000190734863
-772.91706901559337,4
-771.67865568863454,7.5999999046325684
-770.44048201429,11.199999809265137
-769.20254794384346,20.200000762939453
-767.96485342860433,15.199999809265137
-766.7273984198855,-3.7999999523162842
-765.49018286900719,10.800000190734863
-764.25320672730777,1
-763.01646994613657,18.600000381469727
-761.77997247685744,7
-760.5437142708488,22
-759.307695279489,11.399999618530273
-758.07191545417118,-5.4000000953674316
-756.83637474631723,16.600000381469727
-755.601073107342,1.6000000238418579
-754.36601048868215,2.2000000476837158
-753.13118684178153,10
-751.89660211810587,-0.40000000596046448
-750.66225626912092,17
-749.42814924630693,11
-748.19428100116238,-0.40000000596046448
-746.960651485193,15
-745.72726064991912,18.600000381469727
-744.49410844686827,9.6000003814697266
-743.26119482758622,10.399999618530273
-742.02851974362966,-6.4000000953674316
-740.79608314656616,19.399999618530273
-739.5638849879706,11.399999618530273
-738.331925219436,14.399999618530273
-737.10020379257367,21.399999618530273
-735.86872065898388,5.8000001907348633
-734.63747577031063,-0.40000000596046448
-733.406469078187,16.200000762939453
-732.17570053426061,17.399999618530273
-730.94517009020092,17.799999237060547
-729.71487769768464,6.4000000953674316
-728.48482330838851,4.1999998092651367
-727.25500687402564,4.1999998092651367
-726.02542834630549,10.199999809265137
-724.79608767694481,5.1999998092651367
-723.56698481768581,2.5999999046325684
-722.33811972027434,16.399999618530273
-721.10949233647079,3.7999999523162842
-719.88110261805014,5.1999998092651367
-718.652950516791,17
-717.42503598449366,18.600000381469727
-716.19735897296232,7.5999999046325684
-714.96991943401918,13.600000381469727
-713.74271731949739,15.600000381469727
-712.515752581241,16.799999237060547
-711.28902517110146,22
-710.06253504095184,-4.4000000953674316
-708.83628214267264,13
-707.610266428148,8.8000001907348633
-706.384487849291,9.8000001907348633
-705.15894635801124,2.5999999046325684
-703.93364190623652,6.5999999046325684
-702.70857444590911,4.5999999046325684
-701.48374392898586,13.600000381469727
-700.25915030741635,2.5999999046325684
-699.03479353318289,8.8000001907348633
-697.81067355827872,2.5999999046325684
-696.58679033470071,2.4000000953674316
-695.36314381444936,14.800000190734863
-694.1397339495652,-3.5999999046325684
-692.91656069207056,12
-691.69362399401689,5.5999999046325684
-690.47092380745926,5.4000000953674316
-689.24846008447821,20.399999618530273
-688.02623277714338,18
-686.80424183756077,-3
-685.58248721782911,21
-684.360968870069,8.3999996185302734
-683.13968674641546,14
-681.91864079900733,0.60000002384185791
-680.69783097999425,14.399999618530273
-679.4772572415477,10.399999618530273
-678.25691953584283,7
-677.0368178150693,12.199999809265137
-675.81695203143136,13.600000381469727
-674.59732213714051,16
-673.37792808442282,-3.2000000476837158
-672.15876982551163,-0.800000011920929
-670.9398473126621,11.600000381469727
-669.72116049812939,10
-668.50270933419051,1.6000000238418579
-667.28449377312245,11
-666.0665137672313,1.7999999523162842
-664.84876926881952,6.4000000953674316
-663.63126023020413,5.4000000953674316
-662.413986603724,7
-661.19694834172151,2
-659.9801453965465,9.1999998092651367
-658.76357772057054,9.6000003814697266
-657.54724526617247,-0.800000011920929
-656.33114798573843,14.399999618530273
-655.11528583168,9.3999996185302734
-653.89965875640155,18
-652.68426671233283,1
-651.46910965191455,-1.3999999761581421
-650.25418752759469,17.600000381469727
-649.03950029183216,7
-647.825047897104,12.399999618530273
-646.61083029589463,10.199999809265137
-645.39684744069928,-0.60000002384185791
-644.18309928402778,-1
-642.96958577839359,8.1999998092651367
-641.75630687633929,6.5999999046325684
-640.54326253040745,4.4000000953674316
-639.33045269314425,-9.6000003814697266
-638.117877317125,10.199999809265137
-636.90553635492142,-1.6000000238418579
-635.69342975913059,3
-634.481557482357,8.8000001907348633
-633.26991947720853,7
-632.05851569631523,2.5999999046325684
-630.84734609231418,-2.2000000476837158
-629.63641061784983,11.199999809265137
-628.4257092255848,20.600000381469727
-627.21524186819988,-4.5999999046325684
-626.00500849836862,6.8000001907348633
-624.79500906879366,8.1999998092651367
-623.58524353217763,9.1999998092651367
-622.37571184124863,-10.199999809265137
-621.1664139487275,2.7999999523162842
-619.95734980736415,0.60000002384185791
-618.74851936991581,12.199999809265137
-617.539922589136,6.5999999046325684
-616.33155941781479,2.2000000476837158
-615.12342980873473,-2.2000000476837158
-613.91553371470036,9.3999996185302734
-612.70787108852346,-7
-611.50044188302672,1.2000000476837158
-610.29324605104739,-6
-609.08628354543725,7.5999999046325684
-607.87955431905175,-6.5999999046325684
-606.67305832475722,-3
-605.46679551544912,8
-604.26076584400835,-13.600000381469727
-603.05496926335218,8
-601.849405726387,6.8000001907348633
-600.64407518604821,9.6000003814697266
-599.438977595275,5.8000001907348633
-598.234112907021,-0.60000002384185791
-597.02948107425073,15.199999809265137
-595.82508204993974,4.4000000953674316
-594.62091578707441,-9.6000003814697266
-593.41698223864842,1.3999999761581421
-592.21328135768454,8.6000003814697266
-591.009813097191,10.199999809265137
-589.80657741020877,-4.1999998092651367
-588.60357424978247,-3.7999999523162842
-587.4008035689676,16
-586.19826532083425,-1.6000000238418579
-584.99595945845977,12.600000381469727
-583.793885934936,2.4000000953674316
-582.5920447033659,-4.5999999046325684
-581.39043571686307,5
-580.18905892855764,13.199999809265137
-578.98791429158518,-10.800000190734863
-577.78700175909034,-1.7999999523162842
-576.58632128423778,3
-575.38587282020308,0.20000000298023224
-574.1856563201618,-9.6000003814697266
-572.98567173731681,10.600000381469727
-571.78591902487278,1.2000000476837158
-570.58639813603986,5
-569.38710902406274,-6.1999998092651367
-568.18805164217156,-9.3999996185302734
-566.98922594362557,9.3999996185302734
-565.790631881684,4.5999999046325684
-564.59226940962253,-0.800000011920929
-563.39413848073127,-5.5999999046325684
-562.19623904831133,-0.800000011920929
-560.99857106566742,-3.2000000476837158
-559.80113448612792,3.5999999046325684
-558.60392926301938,4.1999998092651367
-557.40695534968654,-2.2000000476837158
-556.21021269949415,5.8000001907348633
-555.0137012658015,5
-553.81742100199153,23.200000762939453
-552.62137186145628,-11.399999618530273
-551.4255537975896,0
-550.22996676381626,-14.800000190734863
-549.03461071355377,9.3999996185302734
-547.8394856002451,5
-546.64459137733138,-0.60000002384185791
-545.449927998272,-8.1999998092651367
-544.25549541654073,-8.6000003814697266
-543.06129358562066,-2.4000000953674316
-541.86732245900566,-5.8000001907348633
-540.67358199019873,-16.799999237060547
-539.48007213271376,4.1999998092651367
-538.28679284007922,19.200000762939453
-537.09374406584539,-14
-535.900925763548,3.4000000953674316
-534.70833788675736,-6.4000000953674316
-533.51598038904558,1.7999999523162842
-532.32385322399932,-3.7999999523162842
-531.13195634520889,10
-529.94028970629006,-16.799999237060547
-528.74885326085314,2.4000000953674316
-527.55764696253573,4.4000000953674316
-526.36667076497724,1.3999999761581421
-525.17592462183165,0.20000000298023224
-523.985408486762,1
-522.79512231344415,-2.5999999046325684
-521.60506605556839,-12.199999809265137
-520.41523966682871,-1.7999999523162842
-519.22564310093912,-0.800000011920929
-518.0362763116209,-9
-516.84713925260257,-1.6000000238418579
-515.65823187763453,3.5999999046325684
-514.46955414046715,11.399999618530273
-513.28110599486718,-3.5999999046325684
-512.09288739461954,-2.7999999523162842
-510.90489829350736,-17.200000762939453
-509.71713864533194,5.5999999046325684
-508.52960840390369,9.1999998092651367
-507.3423075230512,7
-506.15523595660488,-11.600000381469727
-504.96839365841697,-5.5999999046325684
-503.78178058233607,23
-502.59539668223624,-0.60000002384185791
-501.4092419119952,-4.1999998092651367
-500.223316225507,-10.800000190734863
-499.0376195766712,-4.5999999046325684
-497.85215191940188,5.5999999046325684
-496.666913207624,-9.1999998092651367
-495.48190339527719,-6.5999999046325684
-494.29712243630638,-2.7999999523162842
-493.11257028467116,-10.399999618530273
-491.928246894342,-1.7999999523162842
-490.7441522193003,-11
-489.56028621353471,5.4000000953674316
-488.37664883105754,-11.399999618530273
-487.19324002587746,-7.8000001907348633
-486.01005975202315,7.8000001907348633
-484.8271079635324,-14.600000381469727
-483.6443846144557,10.399999618530273
-482.46188965885085,3.7999999523162842
-481.27962305079018,-3.7999999523162842
-480.09758474435512,0
-478.91577469364165,9
-477.73419285275304,-1
-476.55283917580709,-7.4000000953674316
-475.37171361693436,-14
-474.19081613026719,-1.2000000476837158
-473.010146669958,-17.600000381469727
-471.82970519017181,-2.7999999523162842
-470.64949164507379,14.600000381469727
-469.46950598885633,2.7999999523162842
-468.28974817570452,-11.399999618530273
-467.1102181598344,-1.7999999523162842
-465.93091589545475,-1
-464.75184133679977,1.7999999523162842
-463.57299443810552,-7.8000001907348633
-462.39437515362624,7.5999999046325684
-461.2159834376198,-10.199999809265137
-460.03781924436043,-9
-458.85988252813513,-8.8000001907348633
-457.68217324323632,-7.1999998092651367
-456.50469134396917,7.8000001907348633
-455.32743678465886,-2
-454.15040951962692,-1.7999999523162842
-452.97360950321672,8.3999996185302734
-451.79703668977709,6.1999998092651367
-450.62069103367321,-1.6000000238418579
-449.4445724892721,7.1999998092651367
-448.26868101096989,-9.1999998092651367
-447.09301655315357,-6.4000000953674316
-445.9175790702302,-3.2000000476837158
-444.74236851661954,-12.399999618530273
-443.56738484675407,-4.4000000953674316
-442.39262801506811,6.1999998092651367
-441.21809797601236,-5.8000001907348633
-440.0437946840575,10.399999618530273
-438.86971809366878,-4.4000000953674316
-437.69586815933872,-12.600000381469727
-436.52224483555256,7.1999998092651367
-435.34884807682647,-13
-434.17567783767481,1.7999999523162842
-433.00273407262466,3
-431.83001673621948,-5.1999998092651367
-430.65752578300453,3
-429.4852611675542,-24
-428.31322284443013,-9
-427.14141076821943,12.600000381469727
-425.96982489351649,-16.600000381469727
-424.79846517493388,0.40000000596046448
-423.62733156708055,-11.399999618530273
-422.45642402459453,11.399999618530273
-421.28574250211022,2.2000000476837158
-420.1152869542766,-21
-418.94505733575534,-11.600000381469727
-417.77505360122632,2
-416.60527570536397,5.8000001907348633
-415.43572360287,-3.4000000953674316
-414.26639724844608,-2.2000000476837158
-413.09729659681216,-6.4000000953674316
-411.92842160268992,-1.6000000238418579
-410.7597722208302,-17.200000762939453
-409.59134840596926,-5.4000000953674316
-408.42315011287792,4.1999998092651367
-407.2551772963252,-4
-406.087429911091,-17.600000381469727
-404.9199079119735,-12
-403.75261125377619,-5.1999998092651367
-402.58553989131542,-19.799999237060547
-401.41869377941293,-4.8000001907348633
-400.25207287291232,-5
-399.08567712666627,-6.4000000953674316
-397.919506495522,-21.200000762939453
-396.75356093436312,-7.5999999046325684
-395.58784039806596,-12.600000381469727
-394.42234484151959,1
-393.25707421963307,-14.199999809265137
-392.09202848732275,-4.1999998092651367
-390.92720759950862,6.5999999046325684
-389.76261151112521,-4
-388.59824017713072,-12.399999618530273
-387.43409355247422,0
-386.27017159212846,-11.399999618530273
-385.10647425107527,-11
-383.94300148430193,-18.799999237060547
-382.77975324681393,-3.2000000476837158
-381.616729493624,-16.799999237060547
-380.453930179754,0.20000000298023224
-379.29135526024038,8.8000001907348633
-378.129004690134,-10.199999809265137
-376.96687842448227,-11.399999618530273
-375.80497641835791,-8
-374.64329862683917,-6.1999998092651367
-373.4818450050152,-2.7999999523162842
-372.32061550798426,-17.399999618530273
-371.15961009086277,2.2000000476837158
-369.99882870877082,8
-368.83827131683756,-18.399999618530273
-367.677937870214,-11.399999618530273
-366.51782832404751,-16.600000381469727
-365.3579426335109,-10.199999809265137
-364.19828075377518,8
-363.03884264003136,-21.200000762939453
-361.87962824747046,-4.1999998092651367
-360.7206375313126,-12.399999618530273
-359.56187044677063,-0.40000000596046448
-358.403326949081,-3
-357.24500699348027,-11.199999809265137
-356.08691053522307,-5
-354.92903752956954,-7
-353.771387931798,-0.20000000298023224
-352.61396169719228,-5.5999999046325684
-351.45675878105067,0.60000002384185791
-350.29977913867333,-16.600000381469727
-349.14302272538407,4.5999999046325684
-347.98648949651215,-12.399999618530273
-346.83017940739046,-5.1999998092651367
-345.67409241337191,0.60000002384185791
-344.51822846982031,-19.200000762939453
-343.36258753210313,-2.5999999046325684
-342.20716955560965,-4
-341.05197449572188,-4.4000000953674316
-339.89700230785638,-7.5999999046325684
-338.74225294741518,-5.1999998092651367
-337.58772636983667,10.399999618530273
-336.43342253054652,7.5999999046325684
-335.27934138499768,-0.40000000596046448
-334.12548288865037,-1
-332.97184699696481,-13
-331.81843366542853,5.4000000953674316
-330.66524284953266,-7.4000000953674316
-329.51227450476654,-6
-328.35952858665769,8.8000001907348633
-327.20700505071909,-7.5999999046325684
-326.05470385248555,-10.199999809265137
-324.90262494750459,23.600000381469727
-323.75076829132558,-10
-322.59913383951789,8.6000003814697266
-321.44772154765633,-3.4000000953674316
-320.29653137132846,15.600000381469727
-319.14556326613092,2.5999999046325684
-317.99481718767311,5
-316.84429309157531,15.199999809265137
-315.69399093346874,10.199999809265137
-314.54391066899007,10.600000381469727
-313.39405225379596,-7.5999999046325684
-312.24441564354129,7.1999998092651367
-311.09500079390455,17
-309.94580766056788,12.800000190734863
-308.79683619922253,19.799999237060547
-307.64808636558337,18.200000762939453
-306.49955811535619,-7.8000001907348633
-305.35125140426862,-9.8000001907348633
-304.203166188061,24.799999237060547
-303.05530242247733,7.5999999046325684
-301.90766006327794,11.199999809265137
-300.76023906623413,19.399999618530273
-299.61303938712081,16.799999237060547
-298.46606098173288,21.600000381469727
-297.31930380586527,18.200000762939453
-296.17276781533837,19.799999237060547
-295.02645296596893,25
-293.88035921359551,29
-292.73448651404942,18.399999618530273
-291.58883482319834,21.200000762939453
-290.44340409690449,27.399999618530273
-289.29819429103554,22
-288.15320536148647,17.399999618530273
-287.0084372641486,13
-285.86388995493689,26.200000762939453
-284.7195633897627,15.399999618530273
-283.57545752455371,31.200000762939453
-282.431572315254,15
-281.28790771781496,38
-280.1444636881879,36
-279.00124018235692,13.600000381469727
-277.8582371562934,29.200000762939453
-276.71545456599597,36.200000762939453
-275.57289236746692,23.799999237060547
-274.43055051671945,32.599998474121094
-273.28842896977221,32.799999237060547
-272.14652768267115,43.799999237060547
-271.00484661145128,61.599998474121094
-269.86338571217493,38.400001525878906
-268.72214494090622,39.400001525878906
-267.581124253722,50.200000762939453
-266.44032360671372,42.400001525878906
-265.29974295597458,44.799999237060547
-264.159382257616,44
-263.01924146776037,44.599998474121094
-261.87932054252815,48.400001525878906
-260.73961943807444,55.599998474121094
-259.60013811053796,35.400001525878906
-258.46087651608468,67.800003051757813
-257.32183461088971,58.599998474121094
-256.18301235113358,61
-255.04440969300595,59.599998474121094
-253.90602659271462,62.200000762939453
-252.76786300647473,37.400001525878906
-251.62991889051045,55
-250.49219420105146,73.5999984741211
-249.35468889435288,45.599998474121094
-248.217402926668,61.400001525878906
-247.08033625425924,81
-245.94348883341445,76.5999984741211
-244.80686062040877,64.4000015258789
-243.67045157154826,72.4000015258789
-242.53426164314442,67.4000015258789
-241.39829079150877,96.199996948242188
-240.26253897297829,70.800003051757813
-239.12700614388814,79.5999984741211
-237.99169226059348,72.5999984741211
-236.85659727945676,74.800003051757813
-235.72172115684771,108.80000305175781
-234.58706384914331,94.800003051757813
-233.4526253127442,94.800003051757813
-232.31840550405468,97.800003051757813
-231.18440437947902,96.199996948242188
-230.05062189545242,130
-228.91705800840282,126.40000152587891
-227.78371267477996,110.59999847412109
-226.65058585103725,127
-225.51767749363898,116.80000305175781
-224.38498755906403,137.19999694824219
-223.2525160037967,118
-222.1202627843395,132.60000610351563
-220.98822785719858,140.80000305175781
-219.85641117888918,147
-218.7248127059429,149
-217.59343239489681,151
-216.46227020230072,127.59999847412109
-215.3313260847226,150.19999694824219
-214.20059999872137,150.19999694824219
-213.07009190087956,145.60000610351563
-211.9398017477979,133.19999694824219
-210.80972949606621,146
-209.67987510230523,163.39999389648438
-208.5502385231357,144.39999389648438
-207.42081971518564,153.80000305175781
-206.29161863510308,148.60000610351563
-205.16263523954149,158.39999389648438
-204.03386948516163,185.19999694824219
-202.90532132864428,158.80000305175781
-201.77699072666474,165.60000610351563
-200.64887763592742,162.80000305175781
-199.52098201313311,176.19999694824219
-198.39330381500076,188.60000610351563
-197.26584299825117,166.19999694824219
-196.13859951962695,187.60000610351563
-195.01157333587253,178.60000610351563
-193.88476440374143,196.19999694824219
-192.75817268001083,206.80000305175781
-191.63179812144881,199
-190.50564068485255,212.39999389648438
-189.3797003270156,210.39999389648438
-188.25397700474423,214.60000610351563
-187.12847067486291,246.39999389648438
-186.00318129420339,249.80000305175781
-184.87810881960104,254.80000305175781
-183.75325320790944,261.39999389648438
-182.62861441598398,290.60000610351563
-181.50419240070187,313
-180.37998711894033,279.39999389648438
-179.25599852759296,315
-178.13222658356062,334.79998779296875
-177.00867124376236,348.39999389648438
-175.88533246510815,358
-174.76221020454068,384.20001220703125
-173.63930441900084,424.79998779296875
-172.51661506544224,400.79998779296875
-171.39414210082759,409.20001220703125
-170.27188548212871,453.39999389648438
-169.14984516633558,486.79998779296875
-168.02802111043638,491.39999389648438
-166.90641327144112,517.4000244140625
-165.78502160636344,538
-164.66384607223154,560.20001220703125
-163.54288662607541,597.20001220703125
-162.4221432249451,589.79998779296875
-161.30161582589426,626
-160.18130438598928,618.20001220703125
-159.06120886230929,671.5999755859375
-157.94132921194432,671.5999755859375
-156.82166539198624,686.20001220703125
-155.70221735953965,735
-154.58298507173095,756.5999755859375
-153.46396848568111,750.4000244140625
-152.34516755853474,799.20001220703125
-151.22658224743282,839.20001220703125
-150.10821250953813,846.4000244140625
-148.99005830202077,860.79998779296875
-147.87211958205626,906.79998779296875
-146.75439630683832,939.20001220703125
-145.63688843355885,958.79998779296875
-144.51959591943705,977.20001220703125
-143.40251872168847,1022.2000122070313
-142.28565679753956,1079.5999755859375
-141.16901010423499,1110.4000244140625
-140.05257859902849,1085.199951171875
-138.93636223917383,1165.800048828125
-137.82036098194294,1158.199951171875
-136.70457478462595,1154.800048828125
-135.58900360449843,1190.800048828125
-134.47364739887416,1278.5999755859375
-133.35850612506329,1309.800048828125
-132.24357974038321,1347
-131.12886820217136,1311.199951171875
-130.01437146776334,1300.800048828125
-128.90008949451476,1328.800048828125
-127.78602223979033,1319.4000244140625
-126.67216966095839,1331.4000244140625
-125.55853171540366,1374.4000244140625
-124.44510836051813,1374
-123.33189955371017,1390.5999755859375
-122.2189052523845,1384.199951171875
-121.10612541397313,1365.4000244140625
-119.9935599959008,1378.5999755859375
-118.88120895561769,1406.199951171875
-117.76907225057403,1384
-116.65714983823818,1424
-115.54544167607855,1431.5999755859375
-114.43394772158354,1463
-113.32266793224335,1464.4000244140625
-112.21160226556458,1496.5999755859375
-111.10075067906291,1475.800048828125
-109.99011313026131,1559.199951171875
-108.87968957669545,1562.5999755859375
-107.76947997590833,1569
-106.65948428545926,1652
-105.54970246290759,1605.800048828125
-104.44013446582903,1687
-103.33078025181567,1759.5999755859375
-102.22163977845048,1816.5999755859375
-101.11271300335284,1824.199951171875
-100.00399988412755,1916.800048828125
-98.8955003784049,1909.199951171875
-97.787214443818812,2023.800048828125
-96.679142038015925,2124.60009765625
-95.571283118651991,2210.199951171875
-94.46363764339003,2306.199951171875
-93.356205569909434,2268.800048828125
-92.248986855895055,2430.199951171875
-91.141981459042654,2349.199951171875
-90.035189337055272,2440.39990234375
-88.928610447654137,2397.39990234375
-87.8222447485623,2474
-86.716092197515536,2500
-85.610152752264185,2517.199951171875
-84.504426370558576,2507
-83.3989130101636,2539.199951171875
-82.29361262886232,2547
-81.188525184439641,2507.39990234375
-80.083650634691367,2512.60009765625
-78.978988937416943,2586.60009765625
-77.8745400504431,2550
-76.7703039315893,2594.800048828125
-75.666280538693172,2736.199951171875
-74.56246982959965,2735.199951171875
-73.45887176217002,2916.39990234375
-72.355486294265575,2928
-71.2523133837658,3087.39990234375
-70.149352988557439,3237.199951171875
-69.046605066534539,3470.199951171875
-67.944069575602043,3582
-66.84174647367945,3764.60009765625
-65.739635718693535,3946
-64.63773726857471,4120.60009765625
-63.5360510812734,4278.60009765625
-62.434577114750937,4437.2001953125
-61.3333153269632,4637.60009765625
-60.232265675895178,4865
-59.131428119522752,5068.60009765625
-58.030802615854554,5497.39990234375
-56.930389122886481,6056.60009765625
-55.830187598636257,6590.7998046875
-54.730198001132521,7498.39990234375
-53.630420288413006,8685.400390625
-52.530854418515446,10317.2001953125
-51.431500349504859,12268.7998046875
-50.332358039440805,14501.400390625
-49.233427446402857,16991.19921875
-48.134708528470583,19137
-47.036201243741743,20143.400390625
-45.937905550323194,19965
-44.839821406334522,18492
-43.74194876988804,16465.80078125
-42.64428759913244,14351.7998046875
-41.5468378522055,12681
-40.449599487265004,11687.400390625
-39.352572462472381,11059.400390625
-38.255756736005424,10949.599609375
-37.159152266047386,11173.2001953125
-36.062759010790614,11548.400390625
-34.966576928443828,11739.599609375
-33.8706059772212,12385.400390625
-32.774846115338732,12861.2001953125
-31.679297301039696,13746.2001953125
-30.583959492563736,15190.400390625
-29.488832648166863,16477.80078125
-28.393916726110547,18286.80078125
-27.299211684672628,19554.599609375
-26.204717482129126,21273.400390625
-25.110434076774254,22696.400390625
-24.016361426916774,23827
-22.922499490865448,24178
-21.828848226945411,24050.400390625
-20.735407593489072,23564.400390625
-19.642177548834297,22300
-18.549158051340783,20982.80078125
-17.456349059368222,19677.599609375
-16.363750531281767,18609
-15.271362425470215,18046.400390625
-14.179184700326005,17189
-13.087217314247027,17005.19921875
-11.995460225642091,16540
-10.903913392940012,16819
-9.8125767745696066,17107.599609375
-8.7214503289651475,17364.19921875
-7.6305340145827358,18162.400390625
-6.5398277898821107,18451.400390625
-5.4493316133357439,15940.7998046875
-4.3590454434179264,11367
-3.26896923861932,6057
-2.1791029574433196,2104.60009765625
-1.0894465583987767,999.4000244140625
-3.637978807091713E-12,887.20001220703125
1.0892367592168739,2214.39990234375
2.1782637607157085,6070.2001953125
3.2670810459494533,11182
4.3556886563619628,16539
5.4440866333861777,19051
6.5322750184368488,18917.80078125
7.6202538529305457,18415.19921875
8.7080231782692863,17733
9.7955830358478124,17403.19921875
10.882933467048133,17597.599609375
11.970074513241343,18023.80078125
13.0570062157949,18339.599609375
14.143728616063527,19126.19921875
15.230241755389216,19970.19921875
16.316545675103043,21095.19921875
17.402640416532449,22313.400390625
18.488526020995778,23949.400390625
19.574202529791364,25330.599609375
20.659669984221182,26442.400390625
21.744928425567196,27213.400390625
22.82997789510955,26627.400390625
23.914818434106564,25678
24.99945008382565,24366
26.083872885503297,22684.19921875
27.168086880381452,21151
28.252092109691148,19360.19921875
29.33588861464159,17788.400390625
30.419476436449258,16100.599609375
31.502855616305169,15166.599609375
32.586026195402155,14402.400390625
33.668988214920319,13862.599609375
34.751741716028846,13531.7998046875
35.834286739884192,12983
36.916623327637353,12750.400390625
37.998751520428414,12994
39.080671359392,13200
40.162382885640909,14247.599609375
41.243886140291579,15889.7998046875
42.325181164447713,18222.599609375
43.406267999200281,20796
44.4871466856257,22899.599609375
45.5678172648004,24159.80078125
46.648279777786229,23926.400390625
47.72853426563961,22028.80078125
48.8085807694024,19197.19921875
49.888419330107354,16024
50.968049988779967,13675
52.047472786436629,11608.400390625
53.126687764075541,9962.599609375
54.205694962698544,8817.7998046875
55.284494423289289,7845.7998046875
56.363086186827786,7122.2001953125
57.44147029427404,6660.60009765625
58.519646786589874,6223.39990234375
59.597615704718919,6054
60.67537708960117,5707.7998046875
61.752930982163889,5630.39990234375
62.83027742332888,5373
63.90741645399612,5263.2001953125
64.984348115074681,5089.2001953125
66.061072447448169,4909.2001953125
67.13758949199655,4677.39990234375
68.213899289597975,4446.2001953125
69.29000188109967,4300.60009765625
70.36589730736705,4195.7998046875
71.441585609234608,3982.800048828125
72.517066827535018,3941
73.592341003088222,3827.800048828125
74.667408176715981,3722.199951171875
75.742268389207311,3720.800048828125
76.816921681369422,3630.800048828125
77.891368093980418,3660.199951171875
78.965607667816585,3632.60009765625
80.039640443639655,3575.199951171875
81.113466462209544,3671
82.187085764271615,3634.60009765625
83.260498390560315,3649.39990234375
84.333704381804637,3693.39990234375
85.40670377871902,3710.60009765625
86.479496622014267,3585.199951171875
87.552082952388446,3659
88.624462810528712,3592.60009765625
89.6966362371113,3637.39990234375
90.76860327281247,3495.199951171875
91.840363958286616,3471.800048828125
92.911918334189977,3422
93.983266441158776,3356.199951171875
95.054408319829236,3183.60009765625
96.12534401081939,3116.800048828125
97.19607355474,2971.199951171875
98.2665969922,2873.60009765625
99.336914363786491,2818.39990234375
100.40702571009024,2717.199951171875
101.47693107168197,2673.800048828125
102.54663048912334,2689.800048828125
103.61612400297781,2612
104.68541165378701,2515.800048828125
105.75449348208713,2445.199951171875
106.82336952840706,2433.800048828125
107.89203983326297,2434
108.96050443715831,2342.39990234375
110.02876338060378,2302.60009765625
111.09681670407736,2303
112.16466444806247,2256.800048828125
113.23230665302981,2273.800048828125
114.2997433594428,2251.39990234375
115.36697460774849,2274.39990234375
116.43400043838665,2184.39990234375
117.50082089179705,2230.39990234375
118.56743600839945,2257.60009765625
119.63384582860272,2216.199951171875
120.70005039281386,2215.60009765625
121.76604974143083,2191.60009765625
122.83184391483519,2209.800048828125
123.89743295340486,2181.199951171875
124.96281689750322,2236.39990234375
126.02799578748636,2173.39990234375
127.09296966370857,2215.39990234375
128.15773856649867,2211.60009765625
129.22230253619455,2196.60009765625
130.28666161311048,2158.60009765625
131.35081583755345,2135.199951171875
132.414765249825,2092.60009765625
133.47850989022481,2107.39990234375
134.54204979901988,1998
135.60538501649535,2003.5999755859375
136.66851558290364,2009
137.73144153850444,1940.199951171875
138.79416292353926,1873.199951171875
139.85667977824414,1812.5999755859375
140.91899214284422,1736.5999755859375
141.9811000575537,1774.800048828125
143.0430035625759,1663.800048828125
144.10470269811231,1605.800048828125
145.16619750435348,1627.800048828125
146.22748802146998,1564.800048828125
147.28857428963602,1516.199951171875
148.3494563490076,1496
149.41013423973891,1424
150.47060800196778,1405.800048828125
151.53087767582292,1342.199951171875
152.59094330143125,1387.5999755859375
153.65080491890512,1324.199951171875
154.71046256834779,1261.5999755859375
155.76991628984433,1206.5999755859375
156.82916612349436,1232.800048828125
157.88821210936294,1167
158.94705428751695,1168
160.00569269801963,1079.199951171875
161.06412738090876,1036
162.12235837622939,1044.5999755859375
163.18038572400837,947.4000244140625
164.23820946425803,961.4000244140625
165.29582963700341,930.4000244140625
166.35324628222952,896.5999755859375
167.41045943993777,862.4000244140625
168.4674691501059,828.79998779296875
169.52427545270439,820.4000244140625
170.58087838770371,786.4000244140625
171.63727799505432,744.20001220703125
172.6934743146976,719.79998779296875
173.74946738657491,707.20001220703125
174.80525725060761,680.5999755859375
175.86084394671525,673.79998779296875
176.91622751480463,623.4000244140625
177.97140799477529,606.20001220703125
179.02638542651403,604.4000244140625
180.08115984989854,574.20001220703125
181.13573130480836,545.5999755859375
182.1900998310939,530.79998779296875
183.24426546861469,492.20001220703125
184.29822825721203,508.39999389648438
185.35198823671635,468.39999389648438
186.40554544695078,463.79998779296875
187.45889992773846,435.60000610351563
188.51205171887523,438.20001220703125
189.5650008601624,420.60000610351563
190.61774739138855,390
191.67029135232588,387.20001220703125
192.72263278274659,365.60000610351563
193.77477172241379,379.60000610351563
194.82670821106694,357
195.87844228846188,354
196.92997399431806,351.60000610351563
197.98130336836039,353.79998779296875
199.03243045030285,330.60000610351563
200.083355279854,335.20001220703125
201.13407789669873,312.60000610351563
202.18459834053465,316.39999389648438
203.23491665102665,317.79998779296875
204.28503286785053,309.79998779296875
205.33494703066026,324.79998779296875
206.38465917910617,319.39999389648438
207.43416935282403,317.39999389648438
208.48347759144417,293.79998779296875
209.53258393459691,295
210.58148842188348,294.39999389648438
211.63019109291054,283.39999389648438
212.67869198727021,296
213.726991144551,281.39999389648438
214.775088604325,293.60000610351563
215.82298440615341,294.60000610351563
216.8706785896029,291.79998779296875
217.91817119421466,285.20001220703125
218.96546225952443,289.79998779296875
220.01255182506975,271.60000610351563
221.05943993036635,256.20001220703125
222.10612661491905,267.20001220703125
223.15261191823993,238.19999694824219
224.19889587981743,230.60000610351563
225.24497853913635,258.79998779296875
226.29085993566514,245
227.33654010887221,233
228.38201909822055,224.39999389648438
229.42729694314221,214.80000305175781
230.47237368309288,196.39999389648438
231.51724935748462,222.19999694824219
232.56192400574764,203.80000305175781
233.60639766728673,181.80000305175781
234.65067038150482,214.60000610351563
235.69474218779396,181.80000305175781
236.73861312553527,174
237.78228323410804,162
238.82575255286974,162.80000305175781
239.86902112117787,165.60000610351563
240.9120889783826,169.39999389648438
241.95495616381777,128.80000305175781
242.99762271681357,157.19999694824219
244.04008867668745,146.19999694824219
245.08235408274959,156.19999694824219
246.1244189743029,131.19999694824219
247.16628339063755,159.80000305175781
248.20794737103279,146.80000305175781
249.24941095476788,138.60000610351563
250.29067418110571,125.19999694824219
251.33173708930008,136.80000305175781
252.37259971859567,126
253.41326210823536,149.19999694824219
254.45372429744384,119.40000152587891
255.49398632544035,125.40000152587891
256.53404823143683,110.80000305175781
257.57391005463069,108
258.61357183421751,108
259.65303360938196,134.80000305175781
260.69229541928871,112
261.73135730310787,109.40000152587891
262.77021929999864,115
263.80888144910386,104.40000152587891
264.84734378955909,95.4000015258789
265.88560636049988,105.40000152587891
266.92366920103996,85.800003051757813
267.9615323502876,92.4000015258789
268.99919584735289,110.19999694824219
270.03665973132047,98.199996948242188
271.07392404127677,103.40000152587891
272.1109888162955,87
273.14785409544129,73.800003051757813
274.18451991776965,88.4000015258789
275.22098632233428,89.4000015258789
276.25725334816525,78.4000015258789
277.29332103429442,78.199996948242188
278.32918941974458,73.800003051757813
279.36485854352395,55.599998474121094
280.40032844463531,83.4000015258789
281.43559916207232,71.800003051757813
282.4706707348214,57.799999237060547
283.50554320185074,76.4000015258789
284.540216602134,60.799999237060547
285.57469097462854,55.200000762939453
286.60896635827521,56
287.6430427920186,56.200000762939453
288.67692031479055,63
289.71059896550651,46
290.74407878308375,52.200000762939453
291.777359806425,56.200000762939453
292.81044207441846,42.599998474121094
293.84332562596137,46.200000762939453
294.87601049991827,83.800003051757813
295.90849673516095,49.200000762939453
296.94078437055396,53.200000762939453
297.97287344493816,42.599998474121094
299.00476399715808,46.200000762939453
300.03645606604368,64.4000015258789
301.06794969041584,25.399999618530273
302.09924490909361,44.599998474121094
303.13034176088149,45.400001525878906
304.16124028456943,17
305.1919405189492,44.400001525878906
306.222442502798,39.400001525878906
307.25274627488216,25.200000762939453
308.2828518739625,50
309.31275933879624,44
310.34246870811512,29
311.37198002066361,45
312.40129331515891,24
313.43040863031638,18
314.45932600484593,48
315.48804547744476,35.599998474121094
316.51656708679729,42.599998474121094
317.54489087158618,28.799999237060547
318.57301687048675,27.399999618530273
319.60094512215619,23.600000381469727
320.62867566524437,39.599998474121094
321.65620853840483,21.399999618530273
322.68354378026197,23.600000381469727
323.71068142945296,25.399999618530273
324.73762152458949,4.5999999046325684
325.76436410428141,6.1999998092651367
326.79090920712588,30.600000381469727
327.81725687171638,6.8000001907348633
328.84340713663732,25.600000381469727
329.86936004045674,-1.3999999761581421
330.8951156217463,19
331.92067391905039,7.8000001907348633
332.9460349709243,11
333.97119881590334,17.399999618530273
334.99616549251732,11.199999809265137
336.02093503928518,13.600000381469727
337.04550749471673,-8.8000001907348633
338.06988289731453,24.200000762939453
339.09406128557566,-2
340.11804269798085,5.1999998092651367
341.14182717300719,10.600000381469727
342.16541474912265,-13
343.18880546478249,-1.7999999523162842
344.21199935844015,2.5999999046325684
345.23499646853088,9.6000003814697266
346.25779683349174,-15.600000381469727
347.2804004917416,-3.2000000476837158
348.30280748169571,7.1999998092651367
349.3250178417602,1
350.34703161032849,4.4000000953674316
351.36884882579034,-8.1999998092651367
352.39046952652461,-33
353.41189375090107,12.399999618530273
354.43312153727675,-5.8000001907348633
355.45415292401049,1
356.47498794944113,-7.8000001907348633
357.49562665190388,-23.600000381469727
358.51606906973029,-11.199999809265137
359.53631524122466,-6.5999999046325684
360.55636520471126,-7.8000001907348633
361.576218998478,-24.600000381469727
362.59587666081825,6.4000000953674316
363.6153382300181,3.7999999523162842
364.63460374434362,-9
365.65367324206454,-12
366.67254676143239,6.1999998092651367
367.69122434069686,-8.1999998092651367
368.70970601810041,-3
369.7279918318618,-9.1999998092651367
370.74608182021075,-15.199999809265137
371.7639760213533,-13.600000381469727
372.78167447349733,1.2000000476837158
373.79917721483071,-17
374.81648428354674,7.5999999046325684
375.8335957178133,-4.4000000953674316
376.85051155580732,6.1999998092651367
377.86723183568211,-17.799999237060547
378.88375659558915,-24
379.90008587367265,10
380.91621970806045,-10.199999809265137
381.932158136884,-19.600000381469727
382.94790119825484,-13.800000190734863
383.96344893028072,-11
384.97880137105676,-16
385.99395855867624,-11.600000381469727
387.0089205312197,-7
388.02368732675495,-26.399999618530273
389.03825898334981,-0.40000000596046448
390.05263553905752,-13.399999618530273
391.06681703192226,-13.199999809265137
392.08080349998454,-21.600000381469727
393.09459498126671,4.5999999046325684
394.10819151379292,-4.5999999046325684
395.12159313558004,-19.399999618530273
396.13479988461768,-13.800000190734863
397.14781179890815,-10.399999618530273
398.16062891643014,-7.1999998092651367
399.17325127516779,-1.2000000476837158
400.18567891308157,-1.7999999523162842
401.19791186813563,-24
402.20995017827954,-23.200000762939453
403.22179388145014,-9.1999998092651367
404.23344301558427,-13.800000190734863
405.24489761860423,-21.600000381469727
406.256157728425,-12.600000381469727
407.26722338295986,-16.600000381469727
408.27809462009827,-30.399999618530273
409.28877147773528,-28
410.29925399374588,-20.200000762939453
411.30954220601052,-29.799999237060547
412.31963615238783,-14.800000190734863
413.3295358707328,-5.5999999046325684
414.33924139889314,-27.399999618530273
415.348752774702,1.2000000476837158
416.35807003599439,-24
417.36719322058889,-8.3999996185302734
418.3761223662932,-4.1999998092651367
419.38485751091685,-1.7999999523162842
420.39339869224932,-14.600000381469727
421.4017459480765,-7.5999999046325684
422.4098993161806,-33.400001525878906
423.41785883432567,-17.600000381469727
424.42562454027211,1.6000000238418579
425.43319647177304,-18.600000381469727
426.44057466656886,-19.799999237060547
427.44775916239269,-14.800000190734863
428.45474999697581,-17.399999618530273
429.46154720802588,-8.1999998092651367
430.46815083326146,-13.600000381469727
431.474560910372,-34.799999237060547
432.48077747705611,-15.600000381469727
433.48680057099773,-26
434.4926302298627,-16.799999237060547
435.49826649132046,-11
436.50370939302593,-12.399999618530273
437.50895897263217,-17.200000762939453
438.5140152677759,-19
439.51887831608292,-6.4000000953674316
440.52354815518265,-18.399999618530273
441.52802482268817,-15.399999618530273
442.532308356198,-16.399999618530273
443.53639879331604,-4.8000001907348633
444.54029617162814,-20.399999618530273
445.54400052871461,-2
446.54751190214483,-10.800000190734863
447.55083032947732,-13.399999618530273
448.553955848276,-12.399999618530273
449.55688849607577,-16.600000381469727
450.55962831042052,-34.799999237060547
451.56217532883238,-6.4000000953674316
452.56452958883892,-31.399999618530273
453.56669112794589,-28.399999618530273
454.56865998365174,11
455.57043619345859,-23.600000381469727
456.57201979484853,-25.200000762939453
457.57341082529638,-9.8000001907348633
458.57460932227514,-16
459.57561532323962,-23.799999237060547
460.57642886564281,-13.800000190734863
461.57704998692861,-33
462.57747872453183,-23
463.57771511587816,-15.399999618530273
464.57775919838059,5
465.5776110094539,-14.800000190734863
466.57727058649289,-12.800000190734863
467.57673796689414,-21
468.5760131880379,-22.200000762939453
469.57509628729895,-14.600000381469727
470.57398730204477,-12
471.57268626963196,-18.399999618530273
472.57119322740982,2.7999999523162842
473.56950821272039,-4.5999999046325684
474.56763126289479,-8.3999996185302734
475.56556241525323,-18.799999237060547
476.56330170711954,2.5999999046325684
477.5608491757921,3
478.55820485857475,-6.4000000953674316
479.55536879275314,1.7999999523162842
480.55234101561109,-28.399999618530273
481.54912156442151,-31.799999237060547
482.54571047644822,-10.199999809265137
483.54210778894412,-12.600000381469727
484.5383135391603,-15.800000190734863
485.53432776433874,-17.799999237060547
486.53015050170507,-26.600000381469727
487.52578178848125,-10.600000381469727
488.521221661882,-6.5999999046325684
489.51647015911294,-25
490.511527317376,-4
491.50639317384957,-16
492.50106776571556,-18.600000381469727
493.49555113015049,-19.200000762939453
494.48984330431631,-29.600000381469727
495.48394432536406,-4.1999998092651367
496.477854230443,-19.799999237060547
497.47157305668588,14.800000190734863
498.46510084122747,-16.799999237060547
499.45843762119148,-31.799999237060547
500.45158343368166,-18
501.44453831580358,-4.5999999046325684
502.43730230465735,-13
503.4298754373267,-18.799999237060547
504.42225775089173,-27
505.41444928242527,-29
506.40645006898194,-28.799999237060547
507.39826014762366,-5.8000001907348633
508.38987955538869,-18.799999237060547
509.38130832932075,-4.1999998092651367
510.3725465064399,-7.8000001907348633
511.36359412377169,-19.799999237060547
512.35445121832345,-28
513.345117827108,-14.399999618530273
514.33559398710713,-12.800000190734863
515.32587973531554,-8.3999996185302734
516.31597510870961,-8.8000001907348633
517.305880144253,-14
518.29559487891856,-9
519.2851193496499,-7
520.27445359339254,-17
521.2635976470865,0.800000011920929
522.25255154765728,-15.399999618530273
523.24131533202308,5.5999999046325684
524.22988903709665,-10.600000381469727
525.21827269978348,-17
526.20646635697267,-15.800000190734863
527.19447004554968,-10
528.18228380239634,-15.199999809265137
529.16990766437993,-27.600000381469727
530.15734166836046,-5.1999998092651367
531.14458585119428,-20.799999237060547
532.13164024971957,-9
533.11850490077813,-35
534.1051798411936,-7.4000000953674316
535.09166510778778,-28.600000381469727
536.0779607373679,-12.199999809265137
537.06406676674123,-14
538.04998323269865,-31.399999618530273
539.03571017202739,-25.799999237060547
540.02124762150379,-4.8000001907348633
541.00659561790053,-18.600000381469727
541.99175419797393,-16.399999618530273
542.97672339848032,-9.6000003814697266
543.96150325615963,-12.399999618530273
544.94609380775364,-31.600000381469727
545.93049508998593,-19
546.91470713957824,-20.799999237060547
547.89872999324143,-18.600000381469727
548.88256368767543,-27.399999618530273
549.86620825957834,-15.800000190734863
550.84966374563555,-33.599998474121094
551.83293018252334,-9.8000001907348633
552.81600760691072,3.7999999523162842
553.79889605546123,-37
554.78159556482933,-23.399999618530273
555.76410617165857,-16.799999237060547
556.74642791258339,-26.200000762939453
557.72856082423277,-25.399999618530273
558.71050494323026,-9.8000001907348633
559.692260306183,-20.799999237060547
560.67382694969274,-22.799999237060547
561.65520491036477,-12.399999618530273
562.63639422477536,-15.800000190734863
563.617394929508,-19.399999618530273
564.59820706113169,-23.200000762939453
565.5788306562099,-8.8000001907348633
566.55926575129524,-18.200000762939453
567.53951238293848,-30.200000762939453
568.51957058766675,-16.799999237060547
569.49944040201626,-22.200000762939453
570.47912186250869,-27.399999618530273
571.45861500565115,0.20000000298023224
572.43791986795441,-14
573.417036485911,-14.399999618530273
574.3959648960099,-14.800000190734863
575.37470513472908,-12.399999618530273
576.35325723854476,-19.600000381469727
577.3316212439131,-18.799999237060547
578.309797187294,-17.799999237060547
579.28778510513439,-7.8000001907348633
580.26558503387241,-32.200000762939453
581.24319700993874,-22.600000381469727
582.22062106975318,-21.200000762939453
583.1978572497319,-27
584.17490558627833,-14
585.15176611579591,-29.799999237060547
586.12843887466624,-24.399999618530273
587.1049238992764,-12.800000190734863
588.08122122599343,-24.799999237060547
589.05733089119167,-17.399999618530273
590.03325293122,-28.799999237060547
591.00898738242722,-27.600000381469727
591.98453428115681,-10.600000381469727
592.95989366373578,-11.600000381469727
593.93506556649481,-15.800000190734863
594.91005002574457,-13
595.88484707779207,-8.8000001907348633
596.85945675894072,-24.799999237060547
597.83387910547935,-27.399999618530273
598.808114153695,-29
599.78216193985281,-15.800000190734863
600.7560225002253,-18.799999237060547
601.729695871074,-23.600000381469727
602.70318208864228,-21.399999618530273
603.67648118917714,-39.799999237060547
604.64959320891285,-5.4000000953674316
605.62251818407458,-16.799999237060547
606.59525615087659,-43.599998474121094
607.56780714553315,-14.600000381469727
608.54017120424214,-17.799999237060547
609.51234836320145,-26.600000381469727
610.48433865859079,-32.200000762939453
611.45614212658984,-17.799999237060547
612.42775880336558,-26.200000762939453
613.39918872508315,-15
614.37043192788951,-15
615.34148844793526,-1.2000000476837158
616.31235832134917,-19.200000762939453
617.28304158426727,-18
618.253538272802,-8.1999998092651367
619.2238484230711,-16
620.19397207117981,-7.8000001907348633
621.16390925321321,-27.600000381469727
622.13366000527276,-23.600000381469727
623.103224363429,-23.200000762939453
624.07260236375441,-28.799999237060547
625.04179404231763,-19.600000381469727
626.01079943516561,-23
626.97961857835253,-21.799999237060547
627.94825150791621,-23.399999618530273
628.91669825988356,-12.800000190734863
629.8849588702833,-23.600000381469727
630.85303337512414,-20.799999237060547
631.8209218104148,-36
632.7886242121549,-19.399999618530273
633.75614061633678,-31.399999618530273
634.72347105893823,-19.799999237060547
635.69061557593523,-24.799999237060547
636.65757420329646,-23.799999237060547
637.6243469769779,-32.200000762939453
638.59093393293,-22.799999237060547
639.55733510709615,-12.600000381469727
640.5235505354085,-19
641.48958025379216,-25.399999618530273
642.45542429816669,-10
643.4210827044426,-23.600000381469727
644.38655550851945,-13.800000190734863
645.351842746295,-1.2000000476837158
646.31694445364883,-7.8000001907348633
647.28186066646231,-4.5999999046325684
648.24659142060591,-43
649.21113675193737,-24
650.17549669631444,-9.3999996185302734
651.13967128958211,-10.199999809265137
652.10366056757266,-11.600000381469727
653.067464566122,-24.200000762939453
654.03108332104784,-15.600000381469727
654.99451686816428,-13.199999809265137
655.95776524327266,-6.8000001907348633
656.920828482178,-29.200000762939453
657.88370662066518,-20.200000762939453
658.84639969451382,-10.399999618530273
659.80890773950159,-26.799999237060547
660.77123079139164,-16.600000381469727
661.733368885938,-45.599998474121094
662.69532205889118,-25.399999618530273
663.65709034599786,-18.200000762939453
664.61867378298484,-8.8000001907348633
665.58007240558072,-26.600000381469727
666.54128624949954,-16.200000762939453
667.50231535045532,-28
668.46315974414392,-13.600000381469727
669.42381946626119,-21
670.38429455249025,-26.600000381469727
671.34458503851238,-28.799999237060547
672.30469095999615,-25
673.2646123525974,-27
674.224349251972,-10.399999618530273
675.18390169377017,-26
676.14326971362243,-12.199999809265137
677.10245334716274,-22.799999237060547
678.0614526300069,-28.399999618530273
679.02026759777618,-28.799999237060547
679.97889828607,-24.799999237060547
680.93734473048789,-7.8000001907348633
681.89560696662011,-26.600000381469727
682.85368503004611,-12.199999809265137
683.81157895634169,-14.600000381469727
684.76928878106992,-10.800000190734863
