-777.87311982425126,35
-776.63374739947358,30
-775.39461482227671,13
-774.15572204389719,34.5
-772.91706901559337,41.5
-771.67865568863454,14
-770.44048201429,28
-769.20254794384346,30
-767.96485342860433,49.5
-766.7273984198855,38
-765.49018286900719,22.5
-764.25320672730777,10.5
-763.01646994613657,49.5
-761.77997247685744,25.5
-760.5437142708488,47
-759.307695279489,19.5
-758.07191545417118,41
-756.83637474631723,50.5
-755.601073107342,25
-754.36601048868215,15
-753.13118684178153,53
-751.89660211810587,32
-750.66225626912092,25
-749.42814924630693,12
-748.19428100116238,42
-746.960651485193,5
-745.72726064991912,25
-744.49410844686827,24.5
-743.26119482758622,22.5
-742.02851974362966,12.5
-740.79608314656616,40
-739.5638849879706,14.5
-738.331925219436,10.5
-737.10020379257367,18.5
-735.86872065898388,14
-734.63747577031063,35
-733.406469078187,24
-732.17570053426061,34
-730.94517009020092,34.5
-729.71487769768464,0.5
-728.48482330838851,22.5
-727.25500687402564,31.5
-726.02542834630549,20.5
-724.79608767694481,41
-723.56698481768581,31
-722.33811972027434,28
-721.10949233647079,35
-719.88110261805014,24
-718.652950516791,16
-717.42503598449366,3
-716.19735897296232,37.5
-714.96991943401918,20
-713.74271731949739,11
-712.515752581241,37.5
-711.28902517110146,18
-710.06253504095184,21
-708.83628214267264,6
-707.610266428148,34
-706.384487849291,8.5
-705.15894635801124,37
-703.93364190623652,3.5
-702.70857444590911,5.5
-701.48374392898586,24.5
-700.25915030741635,22.5
-699.03479353318289,22
-697.81067355827872,10.5
-696.58679033470071,34
-695.36314381444936,30.5
-694.1397339495652,34
-692.91656069207056,37
-691.69362399401689,23.5
-690.47092380745926,37
-689.24846008447821,13.5
-688.02623277714338,29.5
-686.80424183756077,14.5
-685.58248721782911,19.5
-684.360968870069,5.5
-683.13968674641546,21.5
-681.91864079900733,11.5
-680.69783097999425,14.5
-679.4772572415477,21.5
-678.25691953584283,-0.5
-677.0368178150693,17
-675.81695203143136,12
-674.59732213714051,18
-673.37792808442282,24
-672.15876982551163,25.5
-670.9398473126621,27.5
-669.72116049812939,20.5
-668.50270933419051,29
-667.28449377312245,8
-666.0665137672313,15
-664.84876926881952,20.5
-663.63126023020413,24.5
-662.413986603724,24
-661.19694834172151,23
-659.9801453965465,11
-658.76357772057054,19
-657.54724526617247,32.5
-656.33114798573843,21.5
-655.11528583168,7
-653.89965875640155,16
-652.68426671233283,14.5
-651.46910965191455,3.5
-650.25418752759469,17.5
-649.03950029183216,19
-647.825047897104,0
-646.61083029589463,8.5
-645.39684744069928,18
-644.18309928402778,31.5
-642.96958577839359,33
-641.75630687633929,-6
-640.54326253040745,11
-639.33045269314425,7.5
-638.117877317125,-1
-636.90553635492142,14.5
-635.69342975913059,1
-634.481557482357,3.5
-633.26991947720853,39
-632.05851569631523,2
-630.84734609231418,26
-629.63641061784983,13.5
-628.4257092255848,3
-627.21524186819988,3.5
-626.00500849836862,6.5
-624.79500906879366,34
-623.58524353217763,21
-622.37571184124863,14.5
-621.1664139487275,6.5
-619.95734980736415,11
-618.74851936991581,-1
-617.539922589136,16
-616.33155941781479,18.5
-615.12342980873473,-1
-613.91553371470036,17.5
-612.70787108852346,21
-611.50044188302672,-0.5
-610.29324605104739,22.5
-609.08628354543725,25
-607.87955431905175,3.5
-606.67305832475722,-2.5
-605.46679551544912,9.5
-604.26076584400835,-2
-603.05496926335218,13.5
-601.849405726387,-16.5
-600.64407518604821,-3
-599.438977595275,14.5
-598.234112907021,5
-597.02948107425073,-10.5
-595.82508204993974,10.5
-594.62091578707441,-8.5
-593.41698223864842,-12
-592.21328135768454,9
-591.009813097191,18
-589.80657741020877,-8.5
-588.60357424978247,-15
-587.4008035689676,27.5
-586.19826532083425,5.5
-584.99595945845977,12.5
-583.793885934936,-4.5
-582.5920447033659,8
-581.39043571686307,16
-580.18905892855764,2.5
-578.98791429158518,13.5
-577.78700175909034,19
-576.58632128423778,14.5
-575.38587282020308,7.5
-574.1856563201618,-7
-572.98567173731681,20
-571.78591902487278,-15.5
-570.58639813603986,-26
-569.38710902406274,11.5
-568.18805164217156,3
-566.98922594362557,16
-565.790631881684,5
-564.59226940962253,18.5
-563.39413848073127,10.5
-562.19623904831133,5.5
-560.99857106566742,12.5
-559.80113448612792,14
-558.60392926301938,-0.5
-557.40695534968654,-11.5
-556.21021269949415,5.5
-555.0137012658015,5.5
-553.81742100199153,0
-552.62137186145628,8.5
-551.4255537975896,33
-550.22996676381626,8
-549.03461071355377,-0.5
-547.8394856002451,-13
-546.64459137733138,4
-545.449927998272,-7
-544.25549541654073,-8
-543.06129358562066,3
-541.86732245900566,-10
-540.67358199019873,-9
-539.48007213271376,0
-538.28679284007922,-17
-537.09374406584539,-13.5
-535.900925763548,7
-534.70833788675736,-11.5
-533.51598038904558,-5
-532.32385322399932,-11.5
-531.13195634520889,1.5
-529.94028970629006,-6.5
-528.74885326085314,17.5
-527.55764696253573,-2
-526.36667076497724,-21.5
-525.17592462183165,-5
-523.985408486762,14.5
-522.79512231344415,-9.5
-521.60506605556839,9.5
-520.41523966682871,4
-519.22564310093912,-1
-518.0362763116209,-8.5
-516.84713925260257,-7
-515.65823187763453,-10
-514.46955414046715,-5
-513.28110599486718,3.5
-512.09288739461954,-3.5
-510.90489829350736,-18
-509.71713864533194,9
-508.52960840390369,-19
-507.3423075230512,2
-506.15523595660488,-1
-504.96839365841697,8.5
-503.78178058233607,22
-502.59539668223624,-3
-501.4092419119952,-8.5
-500.223316225507,-14.5
-499.0376195766712,9.5
-497.85215191940188,-20.5
-496.666913207624,12
-495.48190339527719,-13
-494.29712243630638,7
-493.11257028467116,-19
-491.928246894342,-4.5
-490.7441522193003,-37.5
-489.56028621353471,7.5
-488.37664883105754,-4.5
-487.19324002587746,-5.5
-486.01005975202315,-25
-484.8271079635324,1.5
-483.6443846144557,-8.5
-482.46188965885085,-8.5
-481.27962305079018,16
-480.09758474435512,-24.5
-478.91577469364165,8.5
-477.73419285275304,-13.5
-476.55283917580709,-18.5
-475.37171361693436,-2
-474.19081613026719,-1
-473.010146669958,-4
-471.82970519017181,-18
-470.64949164507379,-26.5
-469.46950598885633,-13
-468.28974817570452,-35
-467.1102181598344,5.5
-465.93091589545475,-22
-464.75184133679977,1.5
-463.57299443810552,-17.5
-462.39437515362624,-6
-461.2159834376198,-16
-460.03781924436043,-2
-458.85988252813513,-14
-457.68217324323632,-1.5
-456.50469134396917,-10
-455.32743678465886,-14
-454.15040951962692,-33.5
-452.97360950321672,-21.5
-451.79703668977709,-19.5
-450.62069103367321,-14
-449.4445724892721,-11
-448.26868101096989,-24
-447.09301655315357,-6
-445.9175790702302,-20.5
-444.74236851661954,-9
-443.56738484675407,-32
-442.39262801506811,-12.5
-441.21809797601236,-8.5
-440.0437946840575,-27
-438.86971809366878,-6
-437.69586815933872,-19.5
-436.52224483555256,-8.5
-435.34884807682647,-2
-434.17567783767481,-27
-433.00273407262466,-26
-431.83001673621948,-6
-430.65752578300453,-11
-429.4852611675542,-17.5
-428.31322284443013,-28.5
-427.14141076821943,-17
-425.96982489351649,-12.5
-424.79846517493388,13.5
-423.62733156708055,-32.5
-422.45642402459453,-8
-421.28574250211022,-17
-420.1152869542766,-23
-418.94505733575534,-25
-417.77505360122632,-24
-416.60527570536397,-24
-415.43572360287,-16
-414.26639724844608,6.5
-413.09729659681216,-28
-411.92842160268992,-26
-410.7597722208302,-25.5
-409.59134840596926,-13.5
-408.42315011287792,-11.5
-407.2551772963252,-6
-406.087429911091,-33.5
-404.9199079119735,15
-403.75261125377619,-18.5
-402.58553989131542,-11
-401.41869377941293,-23
-400.25207287291232,-20
-399.08567712666627,-33
-397.919506495522,-11.5
-396.75356093436312,-4.5
-395.58784039806596,-46.5
-394.42234484151959,-19.5
-393.25707421963307,0
-392.09202848732275,-27.5
-390.92720759950862,-11.5
-389.76261151112521,-14.5
-388.59824017713072,-23.5
-387.43409355247422,-49.5
-386.27017159212846,-19
-385.10647425107527,-33
-383.94300148430193,-16
-382.77975324681393,-44
-381.616729493624,-22
-380.453930179754,-27.5
-379.29135526024038,-37.5
-378.129004690134,-36
-376.96687842448227,-19
-375.80497641835791,-22
-374.64329862683917,-10.5
-373.4818450050152,-21.5
-372.32061550798426,-34
-371.15961009086277,-4.5
-369.99882870877082,-16
-368.83827131683756,-19.5
-367.677937870214,1
-366.51782832404751,-35.5
-365.3579426335109,-2
-364.19828075377518,-9.5
-363.03884264003136,-26.5
-361.87962824747046,-15.5
-360.7206375313126,-14.5
-359.56187044677063,-45
-358.403326949081,-30
-357.24500699348027,-44.5
-356.08691053522307,-28
-354.92903752956954,-21.5
-353.771387931798,-35.5
-352.61396169719228,-27
-351.45675878105067,-31.5
-350.29977913867333,-34
-349.14302272538407,-22
-347.98648949651215,-39
-346.83017940739046,-32.5
-345.67409241337191,5.5
-344.51822846982031,-14.5
-343.36258753210313,-15.5
-342.20716955560965,-20
-341.05197449572188,-41.5
-339.89700230785638,-22.5
-338.74225294741518,-8.5
-337.58772636983667,-24
-336.43342253054652,-6
-335.27934138499768,-14
-334.12548288865037,-17.5
-332.97184699696481,-22
-331.81843366542853,-2.5
-330.66524284953266,-36.5
-329.51227450476654,-14.5
-328.35952858665769,-25.5
-327.20700505071909,-27
-326.05470385248555,-16.5
-324.90262494750459,-18.5
-323.75076829132558,4
-322.59913383951789,-1
-321.44772154765633,-44
-320.29653137132846,-8
-319.14556326613092,9
-317.99481718767311,2.5
-316.84429309157531,-26.5
-315.69399093346874,-7.5
-314.54391066899007,-9.5
-313.39405225379596,-1
-312.24441564354129,5
-311.09500079390455,-18.5
-309.94580766056788,-30
-308.79683619922253,4
-307.64808636558337,19
-306.49955811535619,-1
-305.35125140426862,-14
-304.203166188061,0
-303.05530242247733,-12.5
-301.90766006327794,-18
-300.76023906623413,-13.5
-299.61303938712081,-11.5
-298.46606098173288,18.5
-297.31930380586527,2
-296.17276781533837,6
-295.02645296596893,2
-293.88035921359551,11
-292.73448651404942,-3.5
-291.58883482319834,-4
-290.44340409690449,-3
-289.29819429103554,-4
-288.15320536148647,-3.5
-287.0084372641486,10.5
-285.86388995493689,-2
-284.7195633897627,-11
-283.57545752455371,-13.5
-282.431572315254,-3
-281.28790771781496,-3
-280.1444636881879,4.5
-279.00124018235692,31.5
-277.8582371562934,33
-276.71545456599597,27
-275.57289236746692,1
-274.43055051671945,18
-273.28842896977221,19.5
-272.14652768267115,-1
-271.00484661145128,37.5
-269.86338571217493,34
-268.72214494090622,17
-267.581124253722,51
-266.44032360671372,10
-265.29974295597458,-13.5
-264.159382257616,40
-263.01924146776037,34.5
-261.87932054252815,14
-260.73961943807444,53
-259.60013811053796,23.5
-258.46087651608468,24.5
-257.32183461088971,39
-256.18301235113358,39
-255.04440969300595,25.5
-253.90602659271462,54
-252.76786300647473,28
-251.62991889051045,43.5
-250.49219420105146,43.5
-249.35468889435288,8.5
-248.217402926668,29
-247.08033625425924,64
-245.94348883341445,49
-244.80686062040877,53
-243.67045157154826,35.5
-242.53426164314442,65.5
-241.39829079150877,72
-240.26253897297829,71
-239.12700614388814,63.5
-237.99169226059348,76
-236.85659727945676,85
-235.72172115684771,78.5
-234.58706384914331,78
-233.4526253127442,75
-232.31840550405468,83
-231.18440437947902,75
-230.05062189545242,108.5
-228.91705800840282,106
-227.78371267477996,117.5
-226.65058585103725,132
-225.51767749363898,112
-224.38498755906403,112
-223.2525160037967,130
-222.1202627843395,138
-220.98822785719858,144
-219.85641117888918,134.5
-218.7248127059429,164.5
-217.59343239489681,168
-216.46227020230072,162
-215.3313260847226,131
-214.20059999872137,153.5
-213.07009190087956,174.5
-211.9398017477979,169
-210.80972949606621,168
-209.67987510230523,159
-208.5502385231357,167
-207.42081971518564,180
-206.29161863510308,170
-205.16263523954149,189.5
-204.03386948516163,169
-202.90532132864428,185
-201.77699072666474,219
-200.64887763592742,172.5
-199.52098201313311,200
-198.39330381500076,198
-197.26584299825117,197
-196.13859951962695,247.5
-195.01157333587253,256
-193.88476440374143,236
-192.75817268001083,225.5
-191.63179812144881,256.5
-190.50564068485255,287.5
-189.3797003270156,295.5
-188.25397700474423,285.5
-187.12847067486291,300
-186.00318129420339,367.5
-184.87810881960104,349
-183.75325320790944,358.5
-182.62861441598398,383
-181.50419240070187,393
-180.37998711894033,427.5
-179.25599852759296,440
-178.13222658356062,436
-177.00867124376236,517.5
-175.88533246510815,514.5
-174.76221020454068,555
-173.63930441900084,573
-172.51661506544224,588.5
-171.39414210082759,621.5
-170.27188548212871,596.5
-169.14984516633558,637.5
-168.02802111043638,732.5
-166.90641327144112,703
-165.78502160636344,800.5
-164.66384607223154,758.5
-163.54288662607541,831.5
-162.4221432249451,846
-161.30161582589426,883.5
-160.18130438598928,847.5
-159.06120886230929,951.5
-157.94132921194432,963
-156.82166539198624,1010
-155.70221735953965,1002
-154.58298507173095,1076
-153.46396848568111,1085
-152.34516755853474,1145.5
-151.22658224743282,1152
-150.10821250953813,1211.5
-148.99005830202077,1226
-147.87211958205626,1177.5
-146.75439630683832,1276.5
-145.63688843355885,1317.5
-144.51959591943705,1392
-143.40251872168847,1367
-142.28565679753956,1379
-141.16901010423499,1479.5
-140.05257859902849,1472.5
-138.93636223917383,1568
-137.82036098194294,1626
-136.70457478462595,1674
-135.58900360449843,1697.5
-134.47364739887416,1741.5
-133.35850612506329,1696
-132.24357974038321,1791
-131.12886820217136,1818
-130.01437146776334,1807.5
-128.90008949451476,1851
-127.78602223979033,1836.5
-126.67216966095839,1876
-125.55853171540366,1802
-124.44510836051813,1854
-123.33189955371017,1845
-122.2189052523845,1799
-121.10612541397313,1820.5
-119.9935599959008,1836
-118.88120895561769,1809
-117.76907225057403,1825
-116.65714983823818,1893
-115.54544167607855,1859
-114.43394772158354,1832.5
-113.32266793224335,1926.5
-112.21160226556458,1939
-111.10075067906291,2028.5
-109.99011313026131,1948
-108.87968957669545,1975.5
-107.76947997590833,2109
-106.65948428545926,2124.5
-105.54970246290759,2111
-104.44013446582903,2253.5
-103.33078025181567,2258
-102.22163977845048,2369.5
-101.11271300335284,2335.5
-100.00399988412755,2620
-98.8955003784049,2660
-97.787214443818812,2752
-96.679142038015925,2932.5
-95.571283118651991,3188
-94.46363764339003,3155.5
-93.356205569909434,3270
-92.248986855895055,3367.5
-91.141981459042654,3375
-90.035189337055272,3423.5
-88.928610447654137,3517.5
-87.8222447485623,3509.5
-86.716092197515536,3483
-85.610152752264185,3509.5
-84.504426370558576,3501.5
-83.3989130101636,3397.5
-82.29361262886232,3315
-81.188525184439641,3333
-80.083650634691367,3369.5
-78.978988937416943,3384.5
-77.8745400504431,3395.5
-76.7703039315893,3566
-75.666280538693172,3506.5
-74.56246982959965,3543
-73.45887176217002,3674
-72.355486294265575,3807
-71.2523133837658,4023
-70.149352988557439,4221.5
-69.046605066534539,4495.5
-67.944069575602043,4806.5
-66.84174647367945,4916.5
-65.739635718693535,5226.5
-64.63773726857471,5573
-63.5360510812734,5620
-62.434577114750937,5755.5
-61.3333153269632,6149.5
-60.232265675895178,6571
-59.131428119522752,7061
-58.030802615854554,7565
-56.930389122886481,8536
-55.830187598636257,9846
-54.730198001132521,11227.5
-53.630420288413006,13414.5
-52.530854418515446,16046.5
-51.431500349504859,18881.5
-50.332358039440805,22511
-49.233427446402857,26216
-48.134708528470583,28532.5
-47.036201243741743,29310
-45.937905550323194,28126
-44.839821406334522,24944.5
-43.74194876988804,21197.5
-42.64428759913244,18301
-41.5468378522055,15933.5
-40.449599487265004,14607
-39.352572462472381,14075.5
-38.255756736005424,14010
-37.159152266047386,14486.5
-36.062759010790614,15113.5
-34.966576928443828,15144.5
-33.8706059772212,15654
-32.774846115338732,16387.5
-31.679297301039696,17679
-30.583959492563736,19801
-29.488832648166863,22535
-28.393916726110547,25149
-27.299211684672628,27725
-26.204717482129126,30523
-25.110434076774254,33143.5
-24.016361426916774,34039.5
-22.922499490865448,33242.5
-21.828848226945411,30626
-20.735407593489072,26903.5
-19.642177548834297,23357
-18.549158051340783,21097
-17.456349059368222,19201
-16.363750531281767,17765
-15.271362425470215,17005.5
-14.179184700326005,16086
-13.087217314247027,16009.5
-11.995460225642091,15709
-10.903913392940012,15827
-9.8125767745696066,16119.5
-8.7214503289651475,16512.5
-7.6305340145827358,17138
-6.5398277898821107,17008.5
-5.4493316133357439,15021.5
-4.3590454434179264,10751.5
-3.26896923861932,5590
-2.1791029574433196,1610
-1.0894465583987767,396
-3.637978807091713E-12,439
1.0892367592168739,1698
2.1782637607157085,5511.5
3.2670810459494533,10248.5
4.3556886563619628,15324
5.4440866333861777,17658.5
6.5322750184368488,17873
7.6202538529305457,17072
8.7080231782692863,16389.5
9.7955830358478124,15842.5
10.882933467048133,16225
11.970074513241343,16200.5
13.0570062157949,16633
14.143728616063527,17202
15.230241755389216,18057
16.316545675103043,19757.5
17.402640416532449,21602
18.488526020995778,23700.5
19.574202529791364,27207.5
20.659669984221182,31312
21.744928425567196,34643.5
22.82997789510955,36338.5
23.914818434106564,35871
24.99945008382565,34021
26.083872885503297,30926
27.168086880381452,28673.5
28.252092109691148,25985
29.33588861464159,23247
30.419476436449258,20289
31.502855616305169,18526.5
32.586026195402155,17589.5
33.668988214920319,17175
34.751741716028846,16887
35.834286739884192,16515
36.916623327637353,16285
37.998751520428414,16057
39.080671359392,16173
40.162382885640909,17632
41.243886140291579,19494.5
42.325181164447713,22536.5
43.406267999200281,26928
44.4871466856257,30843
45.5678172648004,33809
46.648279777786229,34570
47.72853426563961,32433.5
48.8085807694024,29178.5
49.888419330107354,24839
50.968049988779967,21296.5
52.047472786436629,18124
53.126687764075541,15234.5
54.205694962698544,13360.5
55.284494423289289,11369
56.363086186827786,9977.5
57.44147029427404,9272.5
58.519646786589874,8572
59.597615704718919,8006
60.67537708960117,7507.5
61.752930982163889,7430
62.83027742332888,6991
63.90741645399612,6869
64.984348115074681,6710
66.061072447448169,6275.5
67.13758949199655,6044
68.213899289597975,5658.5
69.29000188109967,5489
70.36589730736705,5157.5
71.441585609234608,4984
72.517066827535018,4868.5
73.592341003088222,4682
74.667408176715981,4512.5
75.742268389207311,4439.5
76.816921681369422,4443.5
77.891368093980418,4516
78.965607667816585,4549
80.039640443639655,4433.5
81.113466462209544,4651.5
82.187085764271615,4533
83.260498390560315,4729
84.333704381804637,4747
85.40670377871902,4707
86.479496622014267,4719
87.552082952388446,4739
88.624462810528712,4757.5
89.6966362371113,4698
90.76860327281247,4705
91.840363958286616,4563
92.911918334189977,4653.5
93.983266441158776,4411
95.054408319829236,4240
96.12534401081939,4091.5
97.19607355474,3864.5
98.2665969922,3843
99.336914363786491,3631
100.40702571009024,3431
101.47693107168197,3432.5
102.54663048912334,3415
103.61612400297781,3261
104.68541165378701,3100.5
105.75449348208713,3187
106.82336952840706,3075
107.89203983326297,2963
108.96050443715831,2990.5
110.02876338060378,2936
111.09681670407736,2858
112.16466444806247,2931
113.23230665302981,2885.5
114.2997433594428,2807
115.36697460774849,2822.5
116.43400043838665,2764.5
117.50082089179705,2799.5
118.56743600839945,2862.5
119.63384582860272,2838.5
120.70005039281386,2796
121.76604974143083,2821.5
122.83184391483519,2909
123.89743295340486,2883.5
124.96281689750322,2862.5
126.02799578748636,2919.5
127.09296966370857,2819.5
128.15773856649867,2882
129.22230253619455,2784
130.28666161311048,2812
131.35081583755345,2843
132.414765249825,2775.5
133.47850989022481,2730.5
134.54204979901988,2698
135.60538501649535,2644.5
136.66851558290364,2536.5
137.73144153850444,2558
138.79416292353926,2444.5
139.85667977824414,2492
140.91899214284422,2366
141.9811000575537,2310.5
143.0430035625759,2303
144.10470269811231,2198
145.16619750435348,2148
146.22748802146998,2106
147.28857428963602,2150.5
148.3494563490076,2007.5
149.41013423973891,1982
150.47060800196778,1950
151.53087767582292,1903
152.59094330143125,1833
153.65080491890512,1859.5
154.71046256834779,1849.5
155.76991628984433,1721
156.82916612349436,1730
157.88821210936294,1648.5
158.94705428751695,1606
160.00569269801963,1551
161.06412738090876,1535
162.12235837622939,1476.5
163.18038572400837,1451
164.23820946425803,1453
165.29582963700341,1353
166.35324628222952,1262
167.41045943993777,1276.5
168.4674691501059,1210
169.52427545270439,1181
170.58087838770371,1132
171.63727799505432,1142
172.6934743146976,1012.5
173.74946738657491,1060
174.80525725060761,985.5
175.86084394671525,925
176.91622751480463,939.5
177.97140799477529,864
179.02638542651403,894
180.08115984989854,809.5
181.13573130480836,761.5
182.1900998310939,696.5
183.24426546861469,705
184.29822825721203,661.5
185.35198823671635,659.5
186.40554544695078,606.5
187.45889992773846,611.5
188.51205171887523,596.5
189.5650008601624,565.5
190.61774739138855,536
191.67029135232588,512.5
192.72263278274659,513
193.77477172241379,469
194.82670821106694,471.5
195.87844228846188,452.5
196.92997399431806,458.5
197.98130336836039,415
199.03243045030285,464.5
200.083355279854,430
201.13407789669873,423
202.18459834053465,430.5
203.23491665102665,415
204.28503286785053,433.5
205.33494703066026,387.5
206.38465917910617,402.5
207.43416935282403,406.5
208.48347759144417,424
209.53258393459691,388
210.58148842188348,389.5
211.63019109291054,346
212.67869198727021,399
213.726991144551,371.5
214.775088604325,387
215.82298440615341,364.5
216.8706785896029,340
217.91817119421466,388
218.96546225952443,346
220.01255182506975,338.5
221.05943993036635,344
222.10612661491905,322.5
223.15261191823993,323.5
224.19889587981743,284.5
225.24497853913635,296.5
226.29085993566514,291.5
227.33654010887221,260
228.38201909822055,247.5
229.42729694314221,276
230.47237368309288,269.5
231.51724935748462,243.5
232.56192400574764,240
233.60639766728673,240
234.65067038150482,220
235.69474218779396,171.5
236.73861312553527,222.5
237.78228323410804,199
238.82575255286974,184.5
239.86902112117787,188
240.9120889783826,201
241.95495616381777,192.5
242.99762271681357,171.5
244.04008867668745,156
245.08235408274959,164.5
246.1244189743029,175.5
247.16628339063755,148.5
248.20794737103279,150.5
249.24941095476788,176
250.29067418110571,152
251.33173708930008,170
252.37259971859567,137
253.41326210823536,138.5
254.45372429744384,198
255.49398632544035,138.5
256.53404823143683,140
257.57391005463069,134.5
258.61357183421751,149
259.65303360938196,140.5
260.69229541928871,102
261.73135730310787,148.5
262.77021929999864,130
263.80888144910386,143
264.84734378955909,138
265.88560636049988,128.5
266.92366920103996,124
267.9615323502876,124
268.99919584735289,137
270.03665973132047,98.5
271.07392404127677,64
272.1109888162955,98.5
273.14785409544129,102
274.18451991776965,91.5
275.22098632233428,121
276.25725334816525,103
277.29332103429442,97
278.32918941974458,69.5
279.36485854352395,73.5
280.40032844463531,68
281.43559916207232,88.5
282.4706707348214,101
283.50554320185074,75
284.540216602134,74.5
285.57469097462854,56.5
286.60896635827521,67
287.6430427920186,56
288.67692031479055,58.5
289.71059896550651,57
290.74407878308375,59
291.777359806425,55
292.81044207441846,46
293.84332562596137,39.5
294.87601049991827,55.5
295.90849673516095,40
296.94078437055396,42.5
297.97287344493816,56.5
299.00476399715808,45.5
300.03645606604368,38
301.06794969041584,47
302.09924490909361,41.5
303.13034176088149,34
304.16124028456943,47
305.1919405189492,35
306.222442502798,18.5
307.25274627488216,18
308.2828518739625,27
309.31275933879624,38
310.34246870811512,55.5
311.37198002066361,35
312.40129331515891,64
313.43040863031638,23
314.45932600484593,11.5
315.48804547744476,33.5
316.51656708679729,-20
317.54489087158618,27
318.57301687048675,37.5
319.60094512215619,-19.5
320.62867566524437,-0.5
321.65620853840483,11
322.68354378026197,15
323.71068142945296,9
324.73762152458949,2
325.76436410428141,-44.5
326.79090920712588,-22.5
327.81725687171638,-2.5
328.84340713663732,-21.5
329.86936004045674,-12
330.8951156217463,18.5
331.92067391905039,-22.5
332.9460349709243,-0.5
333.97119881590334,22.5
334.99616549251732,-3
336.02093503928518,7.5
337.04550749471673,17.5
338.06988289731453,3
339.09406128557566,21
340.11804269798085,-2
341.14182717300719,-8.5
342.16541474912265,-24.5
343.18880546478249,-39
344.21199935844015,-36
345.23499646853088,-40
346.25779683349174,-46
347.2804004917416,-24
348.30280748169571,-16
349.3250178417602,-29
350.34703161032849,-11.5
351.36884882579034,-71.5
352.39046952652461,-50.5
353.41189375090107,-20
354.43312153727675,-36
355.45415292401049,-56.5
356.47498794944113,-51
357.49562665190388,-48.5
358.51606906973029,-39
359.53631524122466,-26.5
360.55636520471126,-49
361.576218998478,-48.5
362.59587666081825,-36.5
363.6153382300181,-21
364.63460374434362,-52.5
365.65367324206454,-17.5
366.67254676143239,-18
367.69122434069686,-32
368.70970601810041,-27.5
369.7279918318618,-40.5
370.74608182021075,-25
371.7639760213533,-49.5
372.78167447349733,-39.5
373.79917721483071,-43
374.81648428354674,-73.5
375.8335957178133,-42.5
376.85051155580732,-36
377.86723183568211,-46
378.88375659558915,-54
379.90008587367265,-59
380.91621970806045,-39
381.932158136884,-60.5
382.94790119825484,-34.5
383.96344893028072,-36.5
384.97880137105676,-46.5
385.99395855867624,-43.5
387.0089205312197,-55
388.02368732675495,-58
389.03825898334981,-40.5
390.05263553905752,-59.5
391.06681703192226,-42.5
392.08080349998454,-42.5
393.09459498126671,-47
394.10819151379292,-48.5
395.12159313558004,-58.5
396.13479988461768,-48
397.14781179890815,-31
398.16062891643014,-59.5
399.17325127516779,-62
400.18567891308157,-57.5
401.19791186813563,-48.5
402.20995017827954,-44
403.22179388145014,-63
404.23344301558427,-62
405.24489761860423,-45
406.256157728425,-33.5
407.26722338295986,-37.5
408.27809462009827,-71
409.28877147773528,-73.5
410.29925399374588,-47
411.30954220601052,-39.5
412.31963615238783,-73
413.3295358707328,-43
414.33924139889314,-59
415.348752774702,-44
416.35807003599439,-61
417.36719322058889,-63.5
418.3761223662932,-63
419.38485751091685,-51
420.39339869224932,-68
421.4017459480765,-62
422.4098993161806,-54.5
423.41785883432567,-44.5
424.42562454027211,-43.5
425.43319647177304,-46.5
426.44057466656886,-40.5
427.44775916239269,-33
428.45474999697581,-56.5
429.46154720802588,-51
430.46815083326146,-43.5
431.474560910372,-41.5
432.48077747705611,-54.5
433.48680057099773,-47.5
434.4926302298627,-50
435.49826649132046,-51
436.50370939302593,-46
437.50895897263217,-58.5
438.5140152677759,-49
439.51887831608292,-52
440.52354815518265,-27
441.52802482268817,-59
442.532308356198,-52.5
443.53639879331604,-56.5
444.54029617162814,-59
445.54400052871461,-70
446.54751190214483,-43
447.55083032947732,-70.5
448.553955848276,-47.5
449.55688849607577,-52
450.55962831042052,-47.5
451.56217532883238,-46.5
452.56452958883892,-70
453.56669112794589,-45.5
454.56865998365174,-57
455.57043619345859,-66.5
456.57201979484853,-67
457.57341082529638,-61
458.57460932227514,-66
459.57561532323962,-59
460.57642886564281,-47.5
461.57704998692861,-46
462.57747872453183,-51
463.57771511587816,-59
464.57775919838059,-67.5
465.5776110094539,-76
466.57727058649289,-72.5
467.57673796689414,-35
468.5760131880379,-73.5
469.57509628729895,-40
470.57398730204477,-23
471.57268626963196,-42
472.57119322740982,-44
473.56950821272039,-39
474.56763126289479,-40.5
475.56556241525323,-60
476.56330170711954,-10
477.5608491757921,-51.5
478.55820485857475,-51.5
479.55536879275314,-35.5
480.55234101561109,-39.5
481.54912156442151,-71.5
482.54571047644822,-62
483.54210778894412,-56
484.5383135391603,-68.5
485.53432776433874,-33
486.53015050170507,-76
487.52578178848125,-56.5
488.521221661882,-59.5
489.51647015911294,-62
490.511527317376,-39
491.50639317384957,-54.5
492.50106776571556,-51.5
493.49555113015049,-77.5
494.48984330431631,-53.5
495.48394432536406,-58
496.477854230443,-41.5
497.47157305668588,-58.5
498.46510084122747,-54.5
499.45843762119148,-41.5
500.45158343368166,-79.5
501.44453831580358,-30
502.43730230465735,-46.5
503.4298754373267,-55
504.42225775089173,-39
505.41444928242527,-41
506.40645006898194,-46.5
507.39826014762366,-72.5
508.38987955538869,-46.5
509.38130832932075,-68
510.3725465064399,-31
511.36359412377169,-68
512.35445121832345,-41.5
513.345117827108,-61.5
514.33559398710713,-66
515.32587973531554,-56
516.31597510870961,-42.5
517.305880144253,-54
518.29559487891856,-79.5
519.2851193496499,-53.5
520.27445359339254,-31.5
521.2635976470865,-36.5
522.25255154765728,-44
523.24131533202308,-31.5
524.22988903709665,-29
525.21827269978348,-23.5
526.20646635697267,-64
527.19447004554968,-32.5
528.18228380239634,-44.5
529.16990766437993,-54.5
530.15734166836046,-62
531.14458585119428,-70.5
532.13164024971957,-46
533.11850490077813,-35
534.1051798411936,-51.5
535.09166510778778,-64.5
536.0779607373679,-73
537.06406676674123,-55
538.04998323269865,-46
539.03571017202739,-28
540.02124762150379,-88.5
541.00659561790053,-54.5
541.99175419797393,-35.5
542.97672339848032,-54.5
543.96150325615963,-68.5
544.94609380775364,-50.5
545.93049508998593,-70.5
546.91470713957824,-48.5
547.89872999324143,-52
548.88256368767543,-38.5
549.86620825957834,-46
550.84966374563555,-42
551.83293018252334,-39
552.81600760691072,-53.5
553.79889605546123,-54
554.78159556482933,-48
555.76410617165857,-54.5
556.74642791258339,-55.5
557.72856082423277,-83
558.71050494323026,-50.5
559.692260306183,-48
560.67382694969274,-47.5
561.65520491036477,-39
562.63639422477536,-54
563.617394929508,-36.5
564.59820706113169,-47.5
565.5788306562099,-61
566.55926575129524,-35
567.53951238293848,-49
568.51957058766675,-55.5
569.49944040201626,-59.5
570.47912186250869,-38.5
571.45861500565115,-55
572.43791986795441,-50.5
573.417036485911,-61.5
574.3959648960099,-44
575.37470513472908,-45
576.35325723854476,-35.5
577.3316212439131,-52.5
578.309797187294,-31.5
579.28778510513439,-61
580.26558503387241,-50.5
581.24319700993874,-62
582.22062106975318,-39.5
583.1978572497319,-50.5
584.17490558627833,-66
585.15176611579591,-35
586.12843887466624,-47
587.1049238992764,-66
588.08122122599343,-44
589.05733089119167,-53
590.03325293122,-47.5
591.00898738242722,-60
591.98453428115681,-39
592.95989366373578,-59
593.93506556649481,-55.5
594.91005002574457,-70.5
595.88484707779207,-64.5
596.85945675894072,-42.5
597.83387910547935,-37
598.808114153695,-46.5
599.78216193985281,-53.5
600.7560225002253,-57.5
601.729695871074,-45
602.70318208864228,-52
603.67648118917714,-49.5
604.64959320891285,-52.5
605.62251818407458,-68.5
606.59525615087659,-56.5
607.56780714553315,-63.5
608.54017120424214,-44
609.51234836320145,-55.5
610.48433865859079,-64
611.45614212658984,-57
612.42775880336558,-31
613.39918872508315,-61.5
614.37043192788951,-54.5
615.34148844793526,-40
616.31235832134917,-59.5
617.28304158426727,-50
618.253538272802,-56
619.2238484230711,-56
620.19397207117981,-60.5
621.16390925321321,-49
622.13366000527276,-50
623.103224363429,-39.5
624.07260236375441,-48.5
625.04179404231763,-46.5
626.01079943516561,-70.5
626.97961857835253,-34.5
627.94825150791621,-50
628.91669825988356,-57.5
629.8849588702833,-38.5
630.85303337512414,-41.5
631.8209218104148,-37.5
632.7886242121549,-43
633.75614061633678,-60.5
634.72347105893823,-55
635.69061557593523,-54.5
636.65757420329646,-44
637.6243469769779,-45.5
638.59093393293,-32.5
639.55733510709615,-46.5
640.5235505354085,-40
641.48958025379216,-66.5
642.45542429816669,-49.5
643.4210827044426,-49
644.38655550851945,-49
645.351842746295,-58
646.31694445364883,-42
647.28186066646231,-38.5
648.24659142060591,-41.5
649.21113675193737,-41
650.17549669631444,-55.5
651.13967128958211,-42.5
652.10366056757266,-41.5
653.067464566122,-60.5
654.03108332104784,-21.5
654.99451686816428,-46.5
655.95776524327266,-60
656.920828482178,-40
657.88370662066518,-61
658.84639969451382,-42
659.80890773950159,-63
660.77123079139164,-44.5
661.733368885938,-37
662.69532205889118,-53.5
663.65709034599786,-44.5
664.61867378298484,-49.5
665.58007240558072,-38.5
666.54128624949954,-53
667.50231535045532,-48
668.46315974414392,-52.5
669.42381946626119,-57.5
670.38429455249025,-41.5
671.34458503851238,-47.5
672.30469095999615,-28.5
673.2646123525974,-50
674.224349251972,-42
675.18390169377017,-26.5
676.14326971362243,-25.5
677.10245334716274,-50.5
678.0614526300069,-57
679.02026759777618,-36.5
679.97889828607,-66
680.93734473048789,-33.5
681.89560696662011,-48
682.85368503004611,-38
683.81157895634169,-40
684.76928878106992,-29
