-777.87311982425126,1.3333333730697632
-776.63374739947358,10
-775.39461482227671,7.3333334922790527
-774.15572204389719,5
-772.91706901559337,0.3333333432674408
-771.67865568863454,-5.6666665077209473
-770.44048201429,-1.3333333730697632
-769.20254794384346,-0.66666668653488159
-767.96485342860433,-3.3333332538604736
-766.7273984198855,-9.3333330154418945
-765.49018286900719,-11
-764.25320672730777,-26.333333969116211
-763.01646994613657,2.6666667461395264
-761.77997247685744,2.3333332538604736
-760.5437142708488,-8.3333330154418945
-759.307695279489,-16
-758.07191545417118,-12.333333015441895
-756.83637474631723,4.6666665077209473
-755.601073107342,2.6666667461395264
-754.36601048868215,-4
-753.13118684178153,8.6666669845581055
-751.89660211810587,-17.333333969116211
-750.66225626912092,-7.3333334922790527
-749.42814924630693,-17.666666030883789
-748.19428100116238,-7.6666665077209473
-746.960651485193,3.3333332538604736
-745.72726064991912,-6.3333334922790527
-744.49410844686827,-6.6666665077209473
-743.26119482758622,5.3333334922790527
-742.02851974362966,-10
-740.79608314656616,10.666666984558105
-739.5638849879706,1.6666666269302368
-738.331925219436,0.3333333432674408
-737.10020379257367,5.6666665077209473
-735.86872065898388,2.3333332538604736
-734.63747577031063,-5.3333334922790527
-733.406469078187,-2.3333332538604736
-732.17570053426061,8.3333330154418945
-730.94517009020092,-4.3333334922790527
-729.71487769768464,1.6666666269302368
-728.48482330838851,0.66666668653488159
-727.25500687402564,0
-726.02542834630549,10.333333015441895
-724.79608767694481,1
-723.56698481768581,-12.666666984558105
-722.33811972027434,-6.3333334922790527
-721.10949233647079,-8.6666669845581055
-719.88110261805014,-10.333333015441895
-718.652950516791,-8.3333330154418945
-717.42503598449366,14.666666984558105
-716.19735897296232,-23.666666030883789
-714.96991943401918,-0.3333333432674408
-713.74271731949739,3.3333332538604736
-712.515752581241,5
-711.28902517110146,3.6666667461395264
-710.06253504095184,-19.666666030883789
-708.83628214267264,-6
-707.610266428148,15
-706.384487849291,-6.6666665077209473
-705.15894635801124,-8.3333330154418945
-703.93364190623652,9.3333330154418945
-702.70857444590911,-27
-701.48374392898586,-0.3333333432674408
-700.25915030741635,-5.6666665077209473
-699.03479353318289,-6.6666665077209473
-697.81067355827872,-6.3333334922790527
-696.58679033470071,-15
-695.36314381444936,-8.3333330154418945
-694.1397339495652,-11
-692.91656069207056,11
-691.69362399401689,1.3333333730697632
-690.47092380745926,-7.3333334922790527
-689.24846008447821,4
-688.02623277714338,13.333333015441895
-686.80424183756077,-9
-685.58248721782911,7.6666665077209473
-684.360968870069,-22.333333969116211
-683.13968674641546,0.66666668653488159
-681.91864079900733,-22.333333969116211
-680.69783097999425,15.333333015441895
-679.4772572415477,-7.6666665077209473
-678.25691953584283,-2.6666667461395264
-677.0368178150693,15
-675.81695203143136,-8.6666669845581055
-674.59732213714051,-5.3333334922790527
-673.37792808442282,-6.3333334922790527
-672.15876982551163,-1.6666666269302368
-670.9398473126621,-4.3333334922790527
-669.72116049812939,-7.6666665077209473
-668.50270933419051,-5.3333334922790527
-667.28449377312245,-7.3333334922790527
-666.0665137672313,-14.666666984558105
-664.84876926881952,-8.6666669845581055
-663.63126023020413,-6.3333334922790527
-662.413986603724,-12.666666984558105
-661.19694834172151,-0.3333333432674408
-659.9801453965465,3
-658.76357772057054,5
-657.54724526617247,-18.666666030883789
-656.33114798573843,4.6666665077209473
-655.11528583168,-4.3333334922790527
-653.89965875640155,5.6666665077209473
-652.68426671233283,-15
-651.46910965191455,-5.3333334922790527
-650.25418752759469,-6.6666665077209473
-649.03950029183216,-1.6666666269302368
-647.825047897104,-16
-646.61083029589463,-18.666666030883789
-645.39684744069928,-26.666666030883789
-644.18309928402778,-3.3333332538604736
-642.96958577839359,-8.6666669845581055
-641.75630687633929,-21
-640.54326253040745,-7.3333334922790527
-639.33045269314425,-15.333333015441895
-638.117877317125,5.3333334922790527
-636.90553635492142,-5.6666665077209473
-635.69342975913059,-4.3333334922790527
-634.481557482357,3.3333332538604736
-633.26991947720853,-10
-632.05851569631523,5
-630.84734609231418,-19.333333969116211
-629.63641061784983,-6.3333334922790527
-628.4257092255848,20.333333969116211
-627.21524186819988,-21.333333969116211
-626.00500849836862,-3.3333332538604736
-624.79500906879366,-14.666666984558105
-623.58524353217763,0.3333333432674408
-622.37571184124863,-12.666666984558105
-621.1664139487275,7.3333334922790527
-619.95734980736415,-18.666666030883789
-618.74851936991581,-1
-617.539922589136,-12.333333015441895
-616.33155941781479,8.6666669845581055
-615.12342980873473,-10.333333015441895
-613.91553371470036,-9.6666669845581055
-612.70787108852346,-17.666666030883789
-611.50044188302672,1.6666666269302368
-610.29324605104739,-19.666666030883789
-609.08628354543725,-8
-607.87955431905175,-20.666666030883789
-606.67305832475722,-7
-605.46679551544912,-5.3333334922790527
-604.26076584400835,-13.666666984558105
-603.05496926335218,-6
-601.849405726387,0.3333333432674408
-600.64407518604821,1.6666666269302368
-599.438977595275,9
-598.234112907021,-21.666666030883789
-597.02948107425073,-11.333333015441895
-595.82508204993974,-12.666666984558105
-594.62091578707441,-13.666666984558105
-593.41698223864842,-27.333333969116211
-592.21328135768454,0
-591.009813097191,-1
-589.80657741020877,-5
-588.60357424978247,-1
-587.4008035689676,-22.666666030883789
-586.19826532083425,-13.666666984558105
-584.99595945845977,15.333333015441895
-583.793885934936,-8
-582.5920447033659,-14.666666984558105
-581.39043571686307,-0.66666668653488159
-580.18905892855764,17.666666030883789
-578.98791429158518,-21.666666030883789
-577.78700175909034,-18
-576.58632128423778,-19.333333969116211
-575.38587282020308,-0.66666668653488159
-574.1856563201618,-24.333333969116211
-572.98567173731681,-11.333333015441895
-571.78591902487278,-3
-570.58639813603986,-21.333333969116211
-569.38710902406274,-14.666666984558105
-568.18805164217156,-7
-566.98922594362557,-8.3333330154418945
-565.790631881684,0.3333333432674408
-564.59226940962253,-4.3333334922790527
-563.39413848073127,-18.666666030883789
-562.19623904831133,-10.666666984558105
-560.99857106566742,-3.6666667461395264
-559.80113448612792,-6
-558.60392926301938,-2.6666667461395264
-557.40695534968654,-11.333333015441895
-556.21021269949415,-17.333333969116211
-555.0137012658015,-4.6666665077209473
-553.81742100199153,-10
-552.62137186145628,-19.333333969116211
-551.4255537975896,2.3333332538604736
-550.22996676381626,-6.6666665077209473
-549.03461071355377,6.6666665077209473
-547.8394856002451,-0.3333333432674408
-546.64459137733138,3.6666667461395264
-545.449927998272,-28.333333969116211
-544.25549541654073,-14
-543.06129358562066,-21
-541.86732245900566,-6.3333334922790527
-540.67358199019873,-23.333333969116211
-539.48007213271376,-2.6666667461395264
-538.28679284007922,1.3333333730697632
-537.09374406584539,-13.333333015441895
-535.900925763548,-9
-534.70833788675736,-7.3333334922790527
-533.51598038904558,1
-532.32385322399932,-10.666666984558105
-531.13195634520889,8
-529.94028970629006,-21.333333969116211
-528.74885326085314,-19.333333969116211
-527.55764696253573,1
-526.36667076497724,-22.333333969116211
-525.17592462183165,-3
-523.985408486762,-20.333333969116211
-522.79512231344415,-3
-521.60506605556839,-18
-520.41523966682871,-7.3333334922790527
-519.22564310093912,12.333333015441895
-518.0362763116209,-4
-516.84713925260257,-9.6666669845581055
-515.65823187763453,-5.3333334922790527
-514.46955414046715,2.6666667461395264
-513.28110599486718,-5.6666665077209473
-512.09288739461954,-6
-510.90489829350736,-22.333333969116211
-509.71713864533194,-13.666666984558105
-508.52960840390369,-9.3333330154418945
-507.3423075230512,-16.666666030883789
-506.15523595660488,-9
-504.96839365841697,-17.666666030883789
-503.78178058233607,5.3333334922790527
-502.59539668223624,-8.6666669845581055
-501.4092419119952,-19.333333969116211
-500.223316225507,-28.333333969116211
-499.0376195766712,-9.6666669845581055
-497.85215191940188,-15.333333015441895
-496.666913207624,-23.333333969116211
-495.48190339527719,-23.333333969116211
-494.29712243630638,-8
-493.11257028467116,-29.333333969116211
-491.928246894342,-12.333333015441895
-490.7441522193003,-18
-489.56028621353471,-8.6666669845581055
-488.37664883105754,-24
-487.19324002587746,3.3333332538604736
-486.01005975202315,-7
-484.8271079635324,-22.333333969116211
-483.6443846144557,-8
-482.46188965885085,-8.3333330154418945
-481.27962305079018,-5.6666665077209473
-480.09758474435512,-12
-478.91577469364165,4.6666665077209473
-477.73419285275304,-11
-476.55283917580709,-22
-475.37171361693436,-23.333333969116211
-474.19081613026719,-8.3333330154418945
-473.010146669958,-23.666666030883789
-471.82970519017181,-11.666666984558105
-470.64949164507379,-1
-469.46950598885633,-14
-468.28974817570452,-10
-467.1102181598344,-9
-465.93091589545475,-23
-464.75184133679977,-12
-463.57299443810552,-11
-462.39437515362624,-8.6666669845581055
-461.2159834376198,-25.666666030883789
-460.03781924436043,-23.333333969116211
-458.85988252813513,-6.3333334922790527
-457.68217324323632,-30.333333969116211
-456.50469134396917,-18
-455.32743678465886,-23
-454.15040951962692,-14.333333015441895
-452.97360950321672,-6
-451.79703668977709,-11.333333015441895
-450.62069103367321,-23
-449.4445724892721,-19.666666030883789
-448.26868101096989,-22.666666030883789
-447.09301655315357,-15
-445.9175790702302,-11.666666984558105
-444.74236851661954,-15
-443.56738484675407,-14
-442.39262801506811,-14
-441.21809797601236,-18.666666030883789
-440.0437946840575,-9.6666669845581055
-438.86971809366878,-2.6666667461395264
-437.69586815933872,-16
-436.52224483555256,-8
-435.34884807682647,-25
-434.17567783767481,-19.666666030883789
-433.00273407262466,-12.666666984558105
-431.83001673621948,-7
-430.65752578300453,-17.333333969116211
-429.4852611675542,-16.666666030883789
-428.31322284443013,-8
-427.14141076821943,-15.666666984558105
-425.96982489351649,-46.666667938232422
-424.79846517493388,-14
-423.62733156708055,-26.666666030883789
-422.45642402459453,-12.666666984558105
-421.28574250211022,-11.333333015441895
-420.1152869542766,-20.333333969116211
-418.94505733575534,-8
-417.77505360122632,-27.333333969116211
-416.60527570536397,-11.666666984558105
-415.43572360287,-7
-414.26639724844608,-10
-413.09729659681216,-7.6666665077209473
-411.92842160268992,-33.333332061767578
-410.7597722208302,-29
-409.59134840596926,-3.6666667461395264
-408.42315011287792,-12.666666984558105
-407.2551772963252,-9.6666669845581055
-406.087429911091,-37.666667938232422
-404.9199079119735,-11
-403.75261125377619,-21.333333969116211
-402.58553989131542,-33.666667938232422
-401.41869377941293,-24
-400.25207287291232,-5.6666665077209473
-399.08567712666627,-22.666666030883789
-397.919506495522,-35.666667938232422
-396.75356093436312,-22
-395.58784039806596,-7
-394.42234484151959,-16.333333969116211
-393.25707421963307,-25
-392.09202848732275,-1.6666666269302368
-390.92720759950862,-2
-389.76261151112521,-22.666666030883789
-388.59824017713072,-31.333333969116211
-387.43409355247422,-15.333333015441895
-386.27017159212846,-19.333333969116211
-385.10647425107527,-16
-383.94300148430193,-25.333333969116211
-382.77975324681393,-24.333333969116211
-381.616729493624,-21.666666030883789
-380.453930179754,-17.333333969116211
-379.29135526024038,-12.666666984558105
-378.129004690134,-26.333333969116211
-376.96687842448227,-17.333333969116211
-375.80497641835791,-28.333333969116211
-374.64329862683917,-17.666666030883789
-373.4818450050152,-13
-372.32061550798426,-34
-371.15961009086277,-12.666666984558105
-369.99882870877082,-22
-368.83827131683756,-36.333332061767578
-367.677937870214,-23.333333969116211
-366.51782832404751,-25.666666030883789
-365.3579426335109,-9.3333330154418945
-364.19828075377518,-10.333333015441895
-363.03884264003136,-28
-361.87962824747046,-17.333333969116211
-360.7206375313126,-29.666666030883789
-359.56187044677063,-16.666666030883789
-358.403326949081,-14.333333015441895
-357.24500699348027,-24.666666030883789
-356.08691053522307,-33
-354.92903752956954,-25
-353.771387931798,-12.333333015441895
-352.61396169719228,-25.666666030883789
-351.45675878105067,-15.333333015441895
-350.29977913867333,-30
-349.14302272538407,-13.666666984558105
-347.98648949651215,-37
-346.83017940739046,-10.333333015441895
-345.67409241337191,-5.6666665077209473
-344.51822846982031,-27
-343.36258753210313,-23
-342.20716955560965,-10
-341.05197449572188,-32.666667938232422
-339.89700230785638,-10.333333015441895
-338.74225294741518,-22.666666030883789
-337.58772636983667,-20.666666030883789
-336.43342253054652,-12.666666984558105
-335.27934138499768,-20
-334.12548288865037,-25.666666030883789
-332.97184699696481,-15
-331.81843366542853,-18
-330.66524284953266,-7
-329.51227450476654,-17
-328.35952858665769,-16.666666030883789
-327.20700505071909,-37.666667938232422
-326.05470385248555,-33
-324.90262494750459,-6.3333334922790527
-323.75076829132558,-18.333333969116211
-322.59913383951789,-17.666666030883789
-321.44772154765633,-4.6666665077209473
-320.29653137132846,-1
-319.14556326613092,-9.3333330154418945
-317.99481718767311,-21
-316.84429309157531,-26.666666030883789
-315.69399093346874,-11
-314.54391066899007,-17
-313.39405225379596,-5
-312.24441564354129,-27.666666030883789
-311.09500079390455,-21.666666030883789
-309.94580766056788,-21.666666030883789
-308.79683619922253,-5.3333334922790527
-307.64808636558337,-16.333333969116211
-306.49955811535619,-18.666666030883789
-305.35125140426862,-22.666666030883789
-304.203166188061,-12.666666984558105
-303.05530242247733,-16.666666030883789
-301.90766006327794,-23.333333969116211
-300.76023906623413,-32.333332061767578
-299.61303938712081,1.6666666269302368
-298.46606098173288,-0.66666668653488159
-297.31930380586527,-20.666666030883789
-296.17276781533837,2
-295.02645296596893,-8
-293.88035921359551,-1.3333333730697632
-292.73448651404942,-20.666666030883789
-291.58883482319834,-4.6666665077209473
-290.44340409690449,-18
-289.29819429103554,-25.666666030883789
-288.15320536148647,-4.6666665077209473
-287.0084372641486,2
-285.86388995493689,-10.666666984558105
-284.7195633897627,-14
-283.57545752455371,-28.666666030883789
-282.431572315254,-10.666666984558105
-281.28790771781496,2.3333332538604736
-280.1444636881879,-4.3333334922790527
-279.00124018235692,-1.6666666269302368
-277.8582371562934,-8.3333330154418945
-276.71545456599597,5
-275.57289236746692,-20.333333969116211
-274.43055051671945,2.6666667461395264
-273.28842896977221,-11.666666984558105
-272.14652768267115,-2.6666667461395264
-271.00484661145128,7.6666665077209473
-269.86338571217493,10
-268.72214494090622,-2.3333332538604736
-267.581124253722,-4.3333334922790527
-266.44032360671372,-3.6666667461395264
-265.29974295597458,2.6666667461395264
-264.159382257616,15.333333015441895
-263.01924146776037,-17.333333969116211
-261.87932054252815,16
-260.73961943807444,21.666666030883789
-259.60013811053796,5
-258.46087651608468,-4.6666665077209473
-257.32183461088971,16.333333969116211
-256.18301235113358,-0.66666668653488159
-255.04440969300595,15.666666984558105
-253.90602659271462,40.333332061767578
-252.76786300647473,9.6666669845581055
-251.62991889051045,4.6666665077209473
-250.49219420105146,18.666666030883789
-249.35468889435288,3.6666667461395264
-248.217402926668,23.666666030883789
-247.08033625425924,15.666666984558105
-245.94348883341445,14.333333015441895
-244.80686062040877,20.666666030883789
-243.67045157154826,6
-242.53426164314442,17.666666030883789
-241.39829079150877,34
-240.26253897297829,15
-239.12700614388814,39.666667938232422
-237.99169226059348,25.333333969116211
-236.85659727945676,23.333333969116211
-235.72172115684771,22.666666030883789
-234.58706384914331,41.333332061767578
-233.4526253127442,25.666666030883789
-232.31840550405468,28.666666030883789
-231.18440437947902,33.333332061767578
-230.05062189545242,34.666667938232422
-228.91705800840282,39.666667938232422
-227.78371267477996,29.333333969116211
-226.65058585103725,60.666667938232422
-225.51767749363898,54.333332061767578
-224.38498755906403,48.333332061767578
-223.2525160037967,64.333335876464844
-222.1202627843395,40.333332061767578
-220.98822785719858,47.333332061767578
-219.85641117888918,62
-218.7248127059429,27.333333969116211
-217.59343239489681,67
-216.46227020230072,63.666667938232422
-215.3313260847226,53.333332061767578
-214.20059999872137,58.333332061767578
-213.07009190087956,53
-211.9398017477979,16.666666030883789
-210.80972949606621,65.333335876464844
-209.67987510230523,43
-208.5502385231357,53.333332061767578
-207.42081971518564,64.333335876464844
-206.29161863510308,37.666667938232422
-205.16263523954149,61.666667938232422
-204.03386948516163,55.666667938232422
-202.90532132864428,40
-201.77699072666474,74.333335876464844
-200.64887763592742,73.666664123535156
-199.52098201313311,71.333335876464844
-198.39330381500076,72.333335876464844
-197.26584299825117,71
-196.13859951962695,67.333335876464844
-195.01157333587253,74
-193.88476440374143,80
-192.75817268001083,101
-191.63179812144881,103
-190.50564068485255,92.666664123535156
-189.3797003270156,74
-188.25397700474423,81.666664123535156
-187.12847067486291,85
-186.00318129420339,87.333335876464844
-184.87810881960104,95.666664123535156
-183.75325320790944,100.33333587646484
-182.62861441598398,121
-181.50419240070187,93.333335876464844
-180.37998711894033,107.33333587646484
-179.25599852759296,112.66666412353516
-178.13222658356062,117.66666412353516
-177.00867124376236,150.33332824707031
-175.88533246510815,141.66667175292969
-174.76221020454068,151.66667175292969
-173.63930441900084,159.33332824707031
-172.51661506544224,150.66667175292969
-171.39414210082759,155
-170.27188548212871,185.66667175292969
-169.14984516633558,196
-168.02802111043638,187
-166.90641327144112,179.66667175292969
-165.78502160636344,188
-164.66384607223154,238.66667175292969
-163.54288662607541,218.33332824707031
-162.4221432249451,219
-161.30161582589426,281
-160.18130438598928,246
-159.06120886230929,272.66665649414063
-157.94132921194432,252.33332824707031
-156.82166539198624,314
-155.70221735953965,318.66665649414063
-154.58298507173095,314
-153.46396848568111,311.66665649414063
-152.34516755853474,327.66665649414063
-151.22658224743282,342
-150.10821250953813,391.66665649414063
-148.99005830202077,358.66665649414063
-147.87211958205626,397
-146.75439630683832,418.66665649414063
-145.63688843355885,456
-144.51959591943705,461
-143.40251872168847,435.66665649414063
-142.28565679753956,528.66668701171875
-141.16901010423499,518.66668701171875
-140.05257859902849,507.33334350585938
-138.93636223917383,542
-137.82036098194294,570
-136.70457478462595,557.66668701171875
-135.58900360449843,641.66668701171875
-134.47364739887416,588.33331298828125
-133.35850612506329,592
-132.24357974038321,648
-131.12886820217136,641.66668701171875
-130.01437146776334,616
-128.90008949451476,652.66668701171875
-127.78602223979033,650.66668701171875
-126.67216966095839,680
-125.55853171540366,696.66668701171875
-124.44510836051813,751
-123.33189955371017,719
-122.2189052523845,706.33331298828125
-121.10612541397313,731.66668701171875
-119.9935599959008,695.66668701171875
-118.88120895561769,761.66668701171875
-117.76907225057403,744.33331298828125
-116.65714983823818,713.66668701171875
-115.54544167607855,778.66668701171875
-114.43394772158354,796.33331298828125
-113.32266793224335,778
-112.21160226556458,779.66668701171875
-111.10075067906291,786.33331298828125
-109.99011313026131,829.66668701171875
-108.87968957669545,831.33331298828125
-107.76947997590833,831
-106.65948428545926,838
-105.54970246290759,862.33331298828125
-104.44013446582903,911.66668701171875
-103.33078025181567,914.66668701171875
-102.22163977845048,893.66668701171875
-101.11271300335284,980.66668701171875
-100.00399988412755,964
-98.8955003784049,1029
-97.787214443818812,1051.3333740234375
-96.679142038015925,1056.3333740234375
-95.571283118651991,1102.6666259765625
-94.46363764339003,1161.3333740234375
-93.356205569909434,1120
-92.248986855895055,1140.6666259765625
-91.141981459042654,1148
-90.035189337055272,1188
-88.928610447654137,1125
-87.8222447485623,1235
-86.716092197515536,1218.6666259765625
-85.610152752264185,1199.3333740234375
-84.504426370558576,1244.3333740234375
-83.3989130101636,1212.6666259765625
-82.29361262886232,1270
-81.188525184439641,1281.3333740234375
-80.083650634691367,1227.3333740234375
-78.978988937416943,1373
-77.8745400504431,1346
-76.7703039315893,1402.6666259765625
-75.666280538693172,1408.3333740234375
-74.56246982959965,1412.6666259765625
-73.45887176217002,1508.3333740234375
-72.355486294265575,1572
-71.2523133837658,1578.3333740234375
-70.149352988557439,1706.6666259765625
-69.046605066534539,1802.3333740234375
-67.944069575602043,1851.3333740234375
-66.84174647367945,1856.6666259765625
-65.739635718693535,2006.3333740234375
-64.63773726857471,2087.666748046875
-63.5360510812734,2139
-62.434577114750937,2203
-61.3333153269632,2298
-60.232265675895178,2337.333251953125
-59.131428119522752,2383.333251953125
-58.030802615854554,2464.666748046875
-56.930389122886481,2513
-55.830187598636257,2623.666748046875
-54.730198001132521,2705.333251953125
-53.630420288413006,2823
-52.530854418515446,2963
-51.431500349504859,3207.666748046875
-50.332358039440805,3440
-49.233427446402857,3781.333251953125
-48.134708528470583,4172.66650390625
-47.036201243741743,4629
-45.937905550323194,5079
-44.839821406334522,5294.66650390625
-43.74194876988804,5542.33349609375
-42.64428759913244,5658.33349609375
-41.5468378522055,5797
-40.449599487265004,5607
-39.352572462472381,5625.33349609375
-38.255756736005424,5519.66650390625
-37.159152266047386,5592.66650390625
-36.062759010790614,5572
-34.966576928443828,5750
-33.8706059772212,5807
-32.774846115338732,5865
-31.679297301039696,6159.33349609375
-30.583959492563736,6323
-29.488832648166863,6470
-28.393916726110547,6591.66650390625
-27.299211684672628,6868.33349609375
-26.204717482129126,7112
-25.110434076774254,7276
-24.016361426916774,7691.33349609375
-22.922499490865448,7827.66650390625
-21.828848226945411,8282
-20.735407593489072,8697.3330078125
-19.642177548834297,8922.3330078125
-18.549158051340783,9166.3330078125
-17.456349059368222,9254.3330078125
-16.363750531281767,9142
-15.271362425470215,9148
-14.179184700326005,8674.3330078125
-13.087217314247027,8419
-11.995460225642091,8220.6669921875
-10.903913392940012,8031.66650390625
-9.8125767745696066,7983.33349609375
-8.7214503289651475,7948
-7.6305340145827358,7881.33349609375
-6.5398277898821107,7698.66650390625
-5.4493316133357439,6450
-4.3590454434179264,4442
-3.26896923861932,2384.333251953125
-2.1791029574433196,1101.6666259765625
-1.0894465583987767,554
-3.637978807091713E-12,392
1.0892367592168739,1180.3333740234375
2.1782637607157085,2373
3.2670810459494533,4399.66650390625
4.3556886563619628,6506.33349609375
5.4440866333861777,7864.66650390625
6.5322750184368488,7998
7.6202538529305457,7958.33349609375
8.7080231782692863,8047
9.7955830358478124,8295.6669921875
10.882933467048133,8478
11.970074513241343,8740.3330078125
13.0570062157949,8890.6669921875
14.143728616063527,9328
15.230241755389216,9640
16.316545675103043,9709
17.402640416532449,9692
18.488526020995778,9462
19.574202529791364,9203
20.659669984221182,8898.6669921875
21.744928425567196,8501.6669921875
22.82997789510955,8285.6669921875
23.914818434106564,7974.66650390625
24.99945008382565,7679.33349609375
26.083872885503297,7497.66650390625
27.168086880381452,7367.66650390625
28.252092109691148,7070.66650390625
29.33588861464159,6963
30.419476436449258,6644.33349609375
31.502855616305169,6566
32.586026195402155,6492.33349609375
33.668988214920319,6407.33349609375
34.751741716028846,6217
35.834286739884192,6187
36.916623327637353,6138.66650390625
37.998751520428414,6219.33349609375
39.080671359392,6194.33349609375
40.162382885640909,6257
41.243886140291579,6376.66650390625
42.325181164447713,6372
43.406267999200281,6202.66650390625
44.4871466856257,5790.66650390625
45.5678172648004,5351
46.648279777786229,5005.66650390625
47.72853426563961,4465.66650390625
48.8085807694024,4171
49.888419330107354,3785.333251953125
50.968049988779967,3515.333251953125
52.047472786436629,3332.666748046875
53.126687764075541,3153.666748046875
54.205694962698544,3015.666748046875
55.284494423289289,2909.333251953125
56.363086186827786,2878.666748046875
57.44147029427404,2749.333251953125
58.519646786589874,2715
59.597615704718919,2612
60.67537708960117,2604.333251953125
61.752930982163889,2508
62.83027742332888,2454
63.90741645399612,2382.333251953125
64.984348115074681,2282.666748046875
66.061072447448169,2151
67.13758949199655,2122.666748046875
68.213899289597975,2060.666748046875
69.29000188109967,2017.3333740234375
70.36589730736705,1907.6666259765625
71.441585609234608,1803.6666259765625
72.517066827535018,1768
73.592341003088222,1748
74.667408176715981,1704.6666259765625
75.742268389207311,1710.3333740234375
76.816921681369422,1653.3333740234375
77.891368093980418,1607.6666259765625
78.965607667816585,1583.6666259765625
80.039640443639655,1595.3333740234375
81.113466462209544,1514
82.187085764271615,1496.6666259765625
83.260498390560315,1495.6666259765625
84.333704381804637,1454.3333740234375
85.40670377871902,1511
86.479496622014267,1431.3333740234375
87.552082952388446,1427.6666259765625
88.624462810528712,1424.3333740234375
89.6966362371113,1450.6666259765625
90.76860327281247,1478.3333740234375
91.840363958286616,1410.3333740234375
92.911918334189977,1456.6666259765625
93.983266441158776,1377
95.054408319829236,1377
96.12534401081939,1293.3333740234375
97.19607355474,1285
98.2665969922,1286
99.336914363786491,1208.3333740234375
100.40702571009024,1174.3333740234375
101.47693107168197,1181.6666259765625
102.54663048912334,1120.3333740234375
103.61612400297781,1173.3333740234375
104.68541165378701,1157
105.75449348208713,1095.6666259765625
106.82336952840706,1122.3333740234375
107.89203983326297,1026
108.96050443715831,1093.6666259765625
110.02876338060378,1088.6666259765625
111.09681670407736,1019
112.16466444806247,1004.6666870117188
113.23230665302981,1003.6666870117188
114.2997433594428,974.33331298828125
115.36697460774849,989.66668701171875
116.43400043838665,986.33331298828125
117.50082089179705,969
118.56743600839945,1022.3333129882813
119.63384582860272,967.66668701171875
120.70005039281386,954.66668701171875
121.76604974143083,977.66668701171875
122.83184391483519,981
123.89743295340486,920
124.96281689750322,915.33331298828125
126.02799578748636,939
127.09296966370857,898.33331298828125
128.15773856649867,912.66668701171875
129.22230253619455,876
130.28666161311048,920.66668701171875
131.35081583755345,850.66668701171875
132.414765249825,841.66668701171875
133.47850989022481,874.33331298828125
134.54204979901988,806
135.60538501649535,770.33331298828125
136.66851558290364,797
137.73144153850444,790
138.79416292353926,733
139.85667977824414,726.33331298828125
140.91899214284422,694.66668701171875
141.9811000575537,689.66668701171875
143.0430035625759,646.66668701171875
144.10470269811231,657.66668701171875
145.16619750435348,612.33331298828125
146.22748802146998,583.66668701171875
147.28857428963602,564.33331298828125
148.3494563490076,547.66668701171875
149.41013423973891,543.33331298828125
150.47060800196778,502.33334350585938
151.53087767582292,500.33334350585938
152.59094330143125,500
153.65080491890512,470.66665649414063
154.71046256834779,460
155.76991628984433,419.66665649414063
156.82916612349436,419.33334350585938
157.88821210936294,411
158.94705428751695,395
160.00569269801963,353.33334350585938
161.06412738090876,349
162.12235837622939,337
163.18038572400837,316.33334350585938
164.23820946425803,284.66665649414063
165.29582963700341,311.33334350585938
166.35324628222952,286
167.41045943993777,294.33334350585938
168.4674691501059,287.66665649414063
169.52427545270439,254.66667175292969
170.58087838770371,254
171.63727799505432,228.66667175292969
172.6934743146976,250.33332824707031
173.74946738657491,201.33332824707031
174.80525725060761,213.33332824707031
175.86084394671525,219
176.91622751480463,196.66667175292969
177.97140799477529,221.66667175292969
179.02638542651403,195
180.08115984989854,185.66667175292969
181.13573130480836,180.33332824707031
182.1900998310939,155
183.24426546861469,171.33332824707031
184.29822825721203,147
185.35198823671635,158.66667175292969
186.40554544695078,146.66667175292969
187.45889992773846,152.33332824707031
188.51205171887523,161.33332824707031
189.5650008601624,144
190.61774739138855,106.66666412353516
191.67029135232588,112.66666412353516
192.72263278274659,137.33332824707031
193.77477172241379,126.33333587646484
194.82670821106694,123
195.87844228846188,154.33332824707031
196.92997399431806,123.66666412353516
197.98130336836039,104
199.03243045030285,115.66666412353516
200.083355279854,126.33333587646484
201.13407789669873,112.66666412353516
202.18459834053465,120
203.23491665102665,122.33333587646484
204.28503286785053,96.666664123535156
205.33494703066026,105.33333587646484
206.38465917910617,123.33333587646484
207.43416935282403,124.33333587646484
208.48347759144417,82
209.53258393459691,116.33333587646484
210.58148842188348,103.66666412353516
211.63019109291054,109.66666412353516
212.67869198727021,114.66666412353516
213.726991144551,85.666664123535156
214.775088604325,129
215.82298440615341,116
216.8706785896029,106.66666412353516
217.91817119421466,123
218.96546225952443,117.33333587646484
220.01255182506975,114.66666412353516
221.05943993036635,104.33333587646484
222.10612661491905,81.666664123535156
223.15261191823993,108.66666412353516
224.19889587981743,89.666664123535156
225.24497853913635,107
226.29085993566514,72.666664123535156
227.33654010887221,82
228.38201909822055,108
229.42729694314221,75.666664123535156
230.47237368309288,64.333335876464844
231.51724935748462,98.666664123535156
232.56192400574764,57.666667938232422
233.60639766728673,69.666664123535156
234.65067038150482,72.333335876464844
235.69474218779396,68
236.73861312553527,65
237.78228323410804,72.333335876464844
238.82575255286974,46
239.86902112117787,57.333332061767578
240.9120889783826,70.666664123535156
241.95495616381777,36
242.99762271681357,49.333332061767578
244.04008867668745,28.333333969116211
245.08235408274959,47
246.1244189743029,43.666667938232422
247.16628339063755,35.666667938232422
248.20794737103279,27.666666030883789
249.24941095476788,35.333332061767578
250.29067418110571,49
251.33173708930008,35
252.37259971859567,37.666667938232422
253.41326210823536,44.666667938232422
254.45372429744384,21.333333969116211
255.49398632544035,38
256.53404823143683,29
257.57391005463069,25.333333969116211
258.61357183421751,8.3333330154418945
259.65303360938196,40.333332061767578
260.69229541928871,25
261.73135730310787,17
262.77021929999864,28.666666030883789
263.80888144910386,38.333332061767578
264.84734378955909,28.333333969116211
265.88560636049988,16
266.92366920103996,17
267.9615323502876,36
268.99919584735289,27.333333969116211
270.03665973132047,8
271.07392404127677,16.333333969116211
272.1109888162955,12
273.14785409544129,18
274.18451991776965,3.3333332538604736
275.22098632233428,26
276.25725334816525,12.666666984558105
277.29332103429442,-5
278.32918941974458,-1
279.36485854352395,5.3333334922790527
280.40032844463531,23.666666030883789
281.43559916207232,6.3333334922790527
282.4706707348214,-6.3333334922790527
283.50554320185074,5.3333334922790527
284.540216602134,5
285.57469097462854,2
286.60896635827521,4.3333334922790527
287.6430427920186,18.333333969116211
288.67692031479055,-0.66666668653488159
289.71059896550651,-17
290.74407878308375,1.3333333730697632
291.777359806425,17.666666030883789
292.81044207441846,-10.333333015441895
293.84332562596137,3.6666667461395264
294.87601049991827,7.6666665077209473
295.90849673516095,-0.3333333432674408
296.94078437055396,6
297.97287344493816,-25.333333969116211
299.00476399715808,-11.333333015441895
300.03645606604368,5
301.06794969041584,-33.666667938232422
302.09924490909361,-5.3333334922790527
303.13034176088149,-3.6666667461395264
304.16124028456943,-14
305.1919405189492,-10.666666984558105
306.222442502798,-27.333333969116211
307.25274627488216,-6
308.2828518739625,-7.6666665077209473
309.31275933879624,-2.3333332538604736
310.34246870811512,-25.333333969116211
311.37198002066361,-3.3333332538604736
312.40129331515891,-18.666666030883789
313.43040863031638,-16.666666030883789
314.45932600484593,8
315.48804547744476,-4.6666665077209473
316.51656708679729,-22.666666030883789
317.54489087158618,-8.6666669845581055
318.57301687048675,-7
319.60094512215619,0.66666668653488159
320.62867566524437,-5
321.65620853840483,-20
322.68354378026197,-28
323.71068142945296,-15.333333015441895
324.73762152458949,-11.333333015441895
325.76436410428141,-22.666666030883789
326.79090920712588,-1
327.81725687171638,-30.333333969116211
328.84340713663732,-18.333333969116211
329.86936004045674,-37.666667938232422
330.8951156217463,-32.666667938232422
331.92067391905039,-35.333332061767578
332.9460349709243,-32
333.97119881590334,-10.666666984558105
334.99616549251732,-26.666666030883789
336.02093503928518,-15.333333015441895
337.04550749471673,-36.666667938232422
338.06988289731453,-15.666666984558105
339.09406128557566,-29.666666030883789
340.11804269798085,-24.666666030883789
341.14182717300719,-17.333333969116211
342.16541474912265,-37.333332061767578
343.18880546478249,-26.666666030883789
344.21199935844015,-20.666666030883789
345.23499646853088,-29.333333969116211
346.25779683349174,-29.333333969116211
347.2804004917416,-39.666667938232422
348.30280748169571,-15.333333015441895
349.3250178417602,-27.333333969116211
350.34703161032849,-39
351.36884882579034,-22.333333969116211
352.39046952652461,-52
353.41189375090107,-15
354.43312153727675,-39.333332061767578
355.45415292401049,-35.666667938232422
356.47498794944113,-25.666666030883789
357.49562665190388,-47
358.51606906973029,-29
359.53631524122466,-30
360.55636520471126,-53
361.576218998478,-39.333332061767578
362.59587666081825,-20.333333969116211
363.6153382300181,-28.333333969116211
364.63460374434362,-43
365.65367324206454,-32.333332061767578
366.67254676143239,-34.666667938232422
367.69122434069686,-29.666666030883789
368.70970601810041,-42
369.7279918318618,-25.333333969116211
370.74608182021075,-60
371.7639760213533,-27.333333969116211
372.78167447349733,-42
373.79917721483071,-31.333333969116211
374.81648428354674,-26.666666030883789
375.8335957178133,-21
376.85051155580732,-26.333333969116211
377.86723183568211,-39.333332061767578
378.88375659558915,-30.666666030883789
379.90008587367265,-31.333333969116211
380.91621970806045,-24.333333969116211
381.932158136884,-39.666667938232422
382.94790119825484,-27.666666030883789
383.96344893028072,-32.333332061767578
384.97880137105676,-34
385.99395855867624,-39.333332061767578
387.0089205312197,-19.666666030883789
388.02368732675495,-52.666667938232422
389.03825898334981,-17.333333969116211
390.05263553905752,-31.333333969116211
391.06681703192226,-44.333332061767578
392.08080349998454,-29
393.09459498126671,-38.666667938232422
394.10819151379292,-25.666666030883789
395.12159313558004,-26.666666030883789
396.13479988461768,-33.666667938232422
397.14781179890815,-26
398.16062891643014,-33.333332061767578
399.17325127516779,-15
400.18567891308157,-31.333333969116211
401.19791186813563,-25
402.20995017827954,-40
403.22179388145014,-14.666666984558105
404.23344301558427,-34.333332061767578
405.24489761860423,-31.666666030883789
406.256157728425,-38.333332061767578
407.26722338295986,-38.333332061767578
408.27809462009827,-45
409.28877147773528,-50.333332061767578
410.29925399374588,-25.666666030883789
411.30954220601052,-40.333332061767578
412.31963615238783,-34.333332061767578
413.3295358707328,-21.666666030883789
414.33924139889314,-33.666667938232422
415.348752774702,-20.666666030883789
416.35807003599439,-22.666666030883789
417.36719322058889,-15.333333015441895
418.3761223662932,-20
419.38485751091685,-44.333332061767578
420.39339869224932,-33
421.4017459480765,-18.666666030883789
422.4098993161806,-31.666666030883789
423.41785883432567,-43.666667938232422
424.42562454027211,-24.666666030883789
425.43319647177304,-47
426.44057466656886,-31.666666030883789
427.44775916239269,-35
428.45474999697581,-31.666666030883789
429.46154720802588,-33
430.46815083326146,-20.333333969116211
431.474560910372,-50
432.48077747705611,-34.333332061767578
433.48680057099773,-30
434.4926302298627,-33.666667938232422
435.49826649132046,-45.666667938232422
436.50370939302593,-31
437.50895897263217,-40.666667938232422
438.5140152677759,-47
439.51887831608292,-24.666666030883789
440.52354815518265,-25
441.52802482268817,-18.666666030883789
442.532308356198,-49
443.53639879331604,-21
444.54029617162814,-37.333332061767578
445.54400052871461,-41
446.54751190214483,-53
447.55083032947732,-36
448.553955848276,-31.666666030883789
449.55688849607577,-50.333332061767578
450.55962831042052,-60.333332061767578
451.56217532883238,-38
452.56452958883892,-31
453.56669112794589,-57
454.56865998365174,-33.333332061767578
455.57043619345859,-28.666666030883789
456.57201979484853,-30.333333969116211
457.57341082529638,-31.666666030883789
458.57460932227514,-36.333332061767578
459.57561532323962,-24.666666030883789
460.57642886564281,-25.333333969116211
461.57704998692861,-36.666667938232422
462.57747872453183,-33.666667938232422
463.57771511587816,-32.333332061767578
464.57775919838059,-24.333333969116211
465.5776110094539,-41.333332061767578
466.57727058649289,-35
467.57673796689414,-20
468.5760131880379,-35.333332061767578
469.57509628729895,-44.333332061767578
470.57398730204477,-44.666667938232422
471.57268626963196,-28
472.57119322740982,-22
473.56950821272039,-25
474.56763126289479,-22.333333969116211
475.56556241525323,-27.333333969116211
476.56330170711954,-24
477.5608491757921,-25.666666030883789
478.55820485857475,-28
479.55536879275314,-25.666666030883789
480.55234101561109,-41.666667938232422
481.54912156442151,-28.333333969116211
482.54571047644822,-24.333333969116211
483.54210778894412,-25.666666030883789
484.5383135391603,-28.666666030883789
485.53432776433874,-38.666667938232422
486.53015050170507,-37.333332061767578
487.52578178848125,-25
488.521221661882,-27.666666030883789
489.51647015911294,-27.666666030883789
490.511527317376,-31.666666030883789
491.50639317384957,-31
492.50106776571556,-35
493.49555113015049,-39.666667938232422
494.48984330431631,-30.666666030883789
495.48394432536406,-28.333333969116211
496.477854230443,-28
497.47157305668588,-11.666666984558105
498.46510084122747,-29
499.45843762119148,-38.333332061767578
500.45158343368166,-28.666666030883789
501.44453831580358,-25
502.43730230465735,-23.333333969116211
503.4298754373267,-35.666667938232422
504.42225775089173,-40.666667938232422
505.41444928242527,-44
506.40645006898194,-30
507.39826014762366,-19.333333969116211
508.38987955538869,-36
509.38130832932075,-34.333332061767578
510.3725465064399,-28.666666030883789
511.36359412377169,-45.333332061767578
512.35445121832345,-31.333333969116211
513.345117827108,-34.333332061767578
514.33559398710713,-30.333333969116211
515.32587973531554,-18.666666030883789
516.31597510870961,-20
517.305880144253,-37.666667938232422
518.29559487891856,-37.666667938232422
519.2851193496499,-18
520.27445359339254,-40.666667938232422
521.2635976470865,-8
522.25255154765728,-30.666666030883789
523.24131533202308,-20.666666030883789
524.22988903709665,-39.333332061767578
525.21827269978348,-33.333332061767578
526.20646635697267,-23.666666030883789
527.19447004554968,-40.666667938232422
528.18228380239634,-26.666666030883789
529.16990766437993,-34.333332061767578
530.15734166836046,-23.666666030883789
531.14458585119428,-29.333333969116211
532.13164024971957,-28.333333969116211
533.11850490077813,-46.333332061767578
534.1051798411936,-19.666666030883789
535.09166510778778,-30
536.0779607373679,-27
537.06406676674123,-32.666667938232422
538.04998323269865,-38
539.03571017202739,-30
540.02124762150379,-27.666666030883789
541.00659561790053,-30
541.99175419797393,-25
542.97672339848032,-25
543.96150325615963,-23.666666030883789
544.94609380775364,-29
545.93049508998593,-29
546.91470713957824,-44.666667938232422
547.89872999324143,-23
548.88256368767543,-36
549.86620825957834,-18
550.84966374563555,-23.333333969116211
551.83293018252334,-45.333332061767578
552.81600760691072,-15.666666984558105
553.79889605546123,-43
554.78159556482933,-31.666666030883789
555.76410617165857,-27.333333969116211
556.74642791258339,-36.333332061767578
557.72856082423277,-45.666667938232422
558.71050494323026,-26
559.692260306183,-35.333332061767578
560.67382694969274,-32
561.65520491036477,-35.666667938232422
562.63639422477536,-14
563.617394929508,-30.666666030883789
564.59820706113169,-36.333332061767578
565.5788306562099,-15
566.55926575129524,-35.666667938232422
567.53951238293848,-29.666666030883789
568.51957058766675,-43.333332061767578
569.49944040201626,-28.666666030883789
570.47912186250869,-43.333332061767578
571.45861500565115,-28
572.43791986795441,-7
573.417036485911,-30.333333969116211
574.3959648960099,-39.333332061767578
575.37470513472908,-19
576.35325723854476,-55
577.3316212439131,-19.333333969116211
578.309797187294,-33.333332061767578
579.28778510513439,-2.3333332538604736
580.26558503387241,-44
581.24319700993874,-36
582.22062106975318,-35
583.1978572497319,-40.333332061767578
584.17490558627833,-18.333333969116211
585.15176611579591,-35
586.12843887466624,-33.666667938232422
587.1049238992764,-23.666666030883789
588.08122122599343,-29.333333969116211
589.05733089119167,-22
590.03325293122,-56.666667938232422
591.00898738242722,-20.666666030883789
591.98453428115681,-41
592.95989366373578,-37.666667938232422
593.93506556649481,-25.333333969116211
594.91005002574457,-11.666666984558105
595.88484707779207,-15.666666984558105
596.85945675894072,-42.333332061767578
597.83387910547935,-26.666666030883789
598.808114153695,-36
599.78216193985281,-26
600.7560225002253,-40
601.729695871074,-26.333333969116211
602.70318208864228,-29.333333969116211
603.67648118917714,-47
604.64959320891285,-20.333333969116211
605.62251818407458,-29.333333969116211
606.59525615087659,-35.333332061767578
607.56780714553315,-18
608.54017120424214,-24.333333969116211
609.51234836320145,-19.666666030883789
610.48433865859079,-28.333333969116211
611.45614212658984,-36.333332061767578
612.42775880336558,-4.6666665077209473
613.39918872508315,-28
614.37043192788951,-25
615.34148844793526,-25.666666030883789
616.31235832134917,-25
617.28304158426727,-31.666666030883789
618.253538272802,-14
619.2238484230711,-22.333333969116211
620.19397207117981,-18.666666030883789
621.16390925321321,-35
622.13366000527276,-29.666666030883789
623.103224363429,-30.333333969116211
624.07260236375441,-22.666666030883789
625.04179404231763,-34
626.01079943516561,-16
626.97961857835253,-24
627.94825150791621,-16
628.91669825988356,-26
629.8849588702833,-28.333333969116211
630.85303337512414,-23
631.8209218104148,-49
632.7886242121549,-18.333333969116211
633.75614061633678,-19
634.72347105893823,-44.333332061767578
635.69061557593523,-39.666667938232422
636.65757420329646,-43
637.6243469769779,-26
638.59093393293,-36.666667938232422
639.55733510709615,-27
640.5235505354085,-28
641.48958025379216,-23
642.45542429816669,-28.333333969116211
643.4210827044426,-43.666667938232422
644.38655550851945,-12
645.351842746295,-5
646.31694445364883,-32
647.28186066646231,-10.666666984558105
648.24659142060591,-42.333332061767578
649.21113675193737,-40.666667938232422
650.17549669631444,-28.666666030883789
651.13967128958211,-34.333332061767578
652.10366056757266,-10
653.067464566122,-35
654.03108332104784,-19
654.99451686816428,-19.666666030883789
655.95776524327266,-18
656.920828482178,-41.666667938232422
657.88370662066518,-31.333333969116211
658.84639969451382,-10.666666984558105
659.80890773950159,-19.666666030883789
660.77123079139164,-7.3333334922790527
661.733368885938,-46.333332061767578
662.69532205889118,-20.666666030883789
663.65709034599786,-34.666667938232422
664.61867378298484,-27
665.58007240558072,-31.333333969116211
666.54128624949954,-31
667.50231535045532,-33.333332061767578
668.46315974414392,-47
669.42381946626119,-17
670.38429455249025,-36.333332061767578
671.34458503851238,-35.666667938232422
672.30469095999615,-25.333333969116211
673.2646123525974,-24.333333969116211
674.224349251972,-9
675.18390169377017,-32.333332061767578
676.14326971362243,-18.333333969116211
677.10245334716274,-31.333333969116211
678.0614526300069,-36
679.02026759777618,-33.666667938232422
679.97889828607,-30
680.93734473048789,-21
681.89560696662011,-36
682.85368503004611,-20.666666030883789
683.81157895634169,-8.3333330154418945
684.76928878106992,-23.666666030883789
