-777.74687133807856,0.800000011920929
-776.50770429765,6.1999998092651367
-775.26877705141487,5.4000000953674316
-774.03008955063888,6.5999999046325684
-772.79164174658763,3.5999999046325684
-771.55343359055223,11.399999618530273
-770.31546503381287,1.6000000238418579
-769.07773602767884,9.3999996185302734
-767.8402465234667,9.1999998092651367
-766.60299647250758,5
-765.36598582614351,8.3999996185302734
-764.12921453572744,2.2000000476837158
-762.89268255262323,9.1999998092651367
-761.65638982821292,6.8000001907348633
-760.42033631388222,0.60000002384185791
-759.184521961035,6.1999998092651367
-757.948946721086,4
-756.71361054546833,7
-755.47851338560758,1.6000000238418579
-754.24365519296589,7.8000001907348633
-753.009035918998,6.1999998092651367
-751.77465551518071,6.4000000953674316
-750.5405139330087,2.2000000476837158
-749.30661112396592,12.800000190734863
-748.0729470395836,-0.20000000298023224
-746.8395216313711,9.6000003814697266
-745.60633485086328,4.5999999046325684
-744.3733866496168,8.8000001907348633
-743.14067697918108,4.1999998092651367
-741.90820579113461,1
-740.67597303705952,9.6000003814697266
-739.44397866855252,5.4000000953674316
-738.21222263721756,4.1999998092651367
-736.98070489468046,12.399999618530273
-735.749425392567,10.199999809265137
-734.51838408252479,4.8000001907348633
-733.28758091621239,6
-732.057015845292,-1.3999999761581421
-730.82668882144753,4.5999999046325684
-729.59659979637036,-0.800000011920929
-728.366748721759,4.1999998092651367
-727.13713554934475,8.3999996185302734
-725.90776023084072,6.1999998092651367
-724.67862271799277,2.4000000953674316
-723.449722962554,1.3999999761581421
-722.22106091628848,8
-720.99263653096386,7.8000001907348633
-719.76444975838785,-1.3999999761581421
-718.53650055034268,2.2000000476837158
-717.308788858647,11
-716.08131463512655,5.5999999046325684
-714.85407783161827,7.1999998092651367
-713.62707839996983,3.4000000953674316
-712.40031629203258,4.1999998092651367
-711.17379145969062,3.7999999523162842
-709.94750385482075,6.1999998092651367
-708.72145342932527,6.8000001907348633
-707.49564013510644,4.8000001907348633
-706.27006392408839,3.4000000953674316
-705.04472474819522,13
-703.81962255938379,5.1999998092651367
-702.59475730959639,-0.40000000596046448
-701.3701289508117,7.4000000953674316
-700.14573743500478,7.8000001907348633
-698.9215827141652,1.2000000476837158
-697.69766474030075,13.199999809265137
-696.47398346541922,8.8000001907348633
-695.25053884156114,2
-694.02733082075611,6.4000000953674316
-692.80435935505557,4.1999998092651367
-691.58162439652915,7.8000001907348633
-690.35912589724649,7.4000000953674316
-689.13686380929175,6.4000000953674316
-687.91483808476733,-1.6000000238418579
-686.69304867578649,9.3999996185302734
-685.47149553447343,2.5999999046325684
-684.25017861295237,1.7999999523162842
-683.02909786337659,3.2000000476837158
-681.80825323790668,8.3999996185302734
-680.5876446887105,3.4000000953674316
-679.3672721679668,1.3999999761581421
-678.14713562787256,2
-676.92723502063564,5.8000001907348633
-675.70757029846391,-3
-674.48814141360162,8.6000003814697266
-673.26894831827849,5
-672.04999096475331,5.5999999046325684
-670.83126930528488,12.600000381469727
-669.61278329215747,4
-668.39453287765537,9.3999996185302734
-667.176518014081,0.40000000596046448
-665.95873865374051,1.3999999761581421
-664.7411947489727,3.7999999523162842
-663.5238862520946,0.800000011920929
-662.30681311546687,0
-661.0899752914429,3.4000000953674316
-659.87337273240155,0.40000000596046448
-658.6570053907144,12.199999809265137
-657.44087321878942,-0.800000011920929
-656.22497616902,13.800000190734863
-655.009314193836,-2.7999999523162842
-653.79388724565979,7
-652.57869527693947,5.1999998092651367
-651.363738240123,6.5999999046325684
-650.14901608768014,12.199999809265137
-648.93452877208438,0.800000011920929
-647.720276245831,0.20000000298023224
-646.5062584614152,9.8000001907348633
-645.29247537135416,6.8000001907348633
-644.078926928165,0.40000000596046448
-642.86561308439377,9
-641.65253379257956,-2.5999999046325684
-640.43968900529035,9.6000003814697266
-639.22707867508689,1.7999999523162842
-638.01470275456631,10.199999809265137
-636.80256119630758,1.2000000476837158
-635.590653952926,2.5999999046325684
-634.37898097704056,4
-633.16754222128111,1.6000000238418579
-631.95633763828118,7.5999999046325684
-630.745367180707,5.1999998092651367
-629.534630801214,3.7999999523162842
-628.32412845248655,9.6000003814697266
-627.11386008720547,9
-625.9038256580734,6.5999999046325684
-624.69402511780754,7.4000000953674316
-623.48445841912508,13.399999618530273
-622.27512551476138,-0.40000000596046448
-621.0660263574664,10.600000381469727
-619.85716089999733,4.8000001907348633
-618.64852909512592,12.600000381469727
-617.44013089563123,3.4000000953674316
-616.2319662543141,1.3999999761581421
-615.0240351239645,5.4000000953674316
-613.81633745741237,-1.2000000476837158
-612.60887320749134,6.1999998092651367
-611.40164232702409,1.3999999761581421
-610.194644768877,5.4000000953674316
-608.98788048590177,0.800000011920929
-607.781349430983,2.4000000953674316
-606.57505155700892,0
-605.36898681687126,6.1999998092651367
-604.1631551634764,5.5999999046325684
-602.95755654975983,2.5999999046325684
-601.75219092864245,3.5999999046325684
-600.54705825307065,2.5999999046325684
-599.34215847600535,7
-598.13749155041478,-0.60000002384185791
-596.93305742927441,5.8000001907348633
-595.72885606557793,2.7999999523162842
-594.52488741232992,3.2000000476837158
-593.32115142254224,0.20000000298023224
-592.117648049245,8.8000001907348633
-590.91437724546449,4.1999998092651367
-589.71133896426,1.3999999761581421
-588.50853315869062,5.1999998092651367
-587.30595978182646,4.4000000953674316
-586.10361878675576,2.4000000953674316
-584.90151012657043,0
-583.69963375437328,-0.40000000596046448
-582.49798962329442,4.5999999046325684
-581.296577686453,4.4000000953674316
-580.09539789699556,4.8000001907348633
-578.894450208074,4.1999998092651367
-577.69373457285474,6
-576.4932509445116,6.4000000953674316
-575.29299927623651,9.1999998092651367
-574.09297952122142,2.7999999523162842
-572.89319163268192,3.4000000953674316
-571.69363556384451,3.4000000953674316
-570.49431126793752,-1.3999999761581421
-569.29521869820383,2.2000000476837158
-568.09635780790632,2.5999999046325684
-566.89772855030969,8.6000003814697266
-565.69933087869686,4
-564.50116474635433,2.5999999046325684
-563.30323010658867,4.4000000953674316
-562.1055269127155,8.8000001907348633
-560.90805511805775,5.5999999046325684
-559.710814675951,10.399999618530273
-558.513805539751,-2.4000000953674316
-557.31702766280978,5.1999998092651367
-556.12048099851017,1
-554.92416550022062,-5
-553.72808112134589,-2
-552.53222781529075,5.8000001907348633
-551.33660553547088,-2.5999999046325684
-550.14121423531651,9.3999996185302734
-548.94605386826515,5.4000000953674316
-547.75112438777614,4.5999999046325684
-546.55642574730518,11.800000190734863
-545.361957900328,-0.60000002384185791
-544.167720800333,1.3999999761581421
-542.97371440082134,3.5999999046325684
-541.77993865529243,11.800000190734863
-540.58639351727652,4.5999999046325684
-539.39307894030026,0.60000002384185791
-538.19999487790665,8
-537.00714128365507,7
-535.81451811110674,1.3999999761581421
-534.622125313841,7.8000001907348633
-533.42996284544643,2.7999999523162842
-532.23803065952234,3.2000000476837158
-531.04632870968271,6.4000000953674316
-529.85485694955059,5.5999999046325684
-528.66361533275631,2.7999999523162842
-527.47260381295564,1.2000000476837158
-526.28182234379165,5.8000001907348633
-525.09127087894194,1.6000000238418579
-523.90094937208778,6
-522.71085777691223,2
-521.52099604712748,-2
-520.33136413644206,9.1999998092651367
-519.14196199858088,4.4000000953674316
-517.95278958728341,1.3999999761581421
-516.76384685629819,0.800000011920929
-515.57513375937924,8
-514.38665025030423,-0.20000000298023224
-513.19839628285263,8
-512.01037181081665,3
-510.82257678800124,-0.800000011920929
-509.63501116822226,6.8000001907348633
-508.44767490530649,7.4000000953674316
-507.26056795309523,3.2000000476837158
-506.07369026543893,0.20000000298023224
-504.88704179619526,2.4000000953674316
-503.70062249923831,6
-502.51443232845486,5
-501.32847123773354,0
-500.14273918098661,3.2000000476837158
-498.95723611213,2.7999999523162842
-497.77196198509228,6.1999998092651367
-496.58691675381124,-4.5999999046325684
-495.40210037224642,-0.800000011920929
-494.21751279435375,5.4000000953674316
-493.03315397410915,-1.2000000476837158
-491.84902386549584,8.3999996185302734
-490.665122422517,-0.60000002384185791
-489.48144959917408,2.5999999046325684
-488.29800534949027,7.8000001907348633
-487.11478962749243,5.4000000953674316
-485.93180238722562,7.1999998092651367
-484.74904358273852,2.2000000476837158
-483.5665131681053,3.4000000953674316
-482.38421109738738,4.1999998092651367
-481.2021373246771,-0.20000000298023224
-480.0202918040759,0
-478.83867448969067,-7.1999998092651367
-477.65728533564106,2.7999999523162842
-476.47612429605579,3.4000000953674316
-475.2951913250854,4.8000001907348633
-474.11448637687681,1.3999999761581421
-472.93400940559695,-2.5999999046325684
-471.75376036542184,8
-470.57373921054023,0.20000000298023224
-469.39394589515177,2.7999999523162842
-468.21438037346343,2.2000000476837158
-467.03504259970032,-2.5999999046325684
-465.8559325280894,-0.40000000596046448
-464.67705011287944,3
-463.49839530831923,-2.5999999046325684
-462.31996806867937,1.6000000238418579
-461.14176834823775,1.6000000238418579
-459.96379610127588,-4
-458.78605128210074,2.7999999523162842
-457.60853384501752,-1.7999999523162842
-456.43124374435138,7
-455.25418093443295,0.60000002384185791
-454.07734536960925,-0.60000002384185791
-452.90073700422909,4
-451.7243557926613,-6.4000000953674316
-450.54820168928381,1.6000000238418579
-449.37227464848911,3.5999999046325684
-448.19657462467148,-1.2000000476837158
-447.02110157224524,4.8000001907348633
-445.84585544562833,-3.7999999523162842
-444.67083619925324,1
-443.49604378757067,-2
-442.32147816503129,-1
-441.14713928610036,-3.5999999046325684
-439.97302710525764,-0.20000000298023224
-438.79914157698659,6.4000000953674316
-437.62548265579426,-0.40000000596046448
-436.45205029618774,1.2000000476837158
-435.27884445268865,7.1999998092651367
-434.10586507982771,3.5999999046325684
-432.93311213215566,4
-431.76058556421776,-2.2000000476837158
-430.58828533058477,8
-429.41621138583832,1.7999999523162842
-428.24436368456008,7.5999999046325684
-427.07274218135353,0.800000011920929
-425.90134683082943,-1.2000000476837158
-424.73017758760216,-1.2000000476837158
-423.55923440631159,-1.3999999761581421
-422.38851724159576,1.7999999523162842
-421.21802604811455,-1
-420.04776078052782,2
-418.87772139351546,-1
-417.70790784176643,1.2000000476837158
-416.53832007998062,3.4000000953674316
-415.36895806286157,0.40000000596046448
-414.19982174513279,4
-413.03091108152512,6.5999999046325684
-411.86222602678754,0.40000000596046448
-410.69376653566542,5.5999999046325684
-409.52553256292776,-2.4000000953674316
-408.35752406334905,-2
-407.18974099171828,4.5999999046325684
-406.02218330282813,4.8000001907348633
-404.85485095149124,2.7999999523162842
-403.68774389253122,-4.5999999046325684
-402.5208620807698,2.7999999523162842
-401.35420547105241,7.8000001907348633
-400.18777401823172,-6.1999998092651367
-399.02156767717497,5.1999998092651367
-397.85558640275485,1.3999999761581421
-396.68983014985315,1.3999999761581421
-395.52429887336984,-0.40000000596046448
-394.35899252820855,5.4000000953674316
-393.1939110692947,-2.4000000953674316
-392.02905445155375,4.4000000953674316
-390.8644226299275,-2.5999999046325684
-389.70001555936324,-3.2000000476837158
-388.53583319482641,-2.5999999046325684
-387.37187549128976,1.7999999523162842
-386.20814240373875,-3.2000000476837158
-385.04463388716613,1.3999999761581421
-383.8813498965792,-3.4000000953674316
-382.71829038699252,5.8000001907348633
-381.55545531343887,2.7999999523162842
-380.392844630951,-4
-379.23045829458351,-3.4000000953674316
-378.06829625939463,5
-376.90635848045895,1
-375.74464491285289,-0.20000000298023224
-374.58315551167289,0
-373.42189023202263,-1.7999999523162842
-372.26084902901857,-2.5999999046325684
-371.10003185778623,-1.6000000238418579
-369.93943867346024,-1.2000000476837158
-368.77906943119342,-7.4000000953674316
-367.61892408613858,1.2000000476837158
-366.45900259346672,-0.40000000596046448
-365.29930490835977,-3.2000000476837158
-364.13983098601057,-2.4000000953674316
-362.98058078161557,0
-361.82155425039127,-1.6000000238418579
-360.66275134756324,-5.1999998092651367
-359.5041720283607,-1
-358.34581624803286,-2.2000000476837158
-357.18768396183805,-5.4000000953674316
-356.02977512504185,-3.2000000476837158
-354.87208969291896,4.1999998092651367
-353.71462762076044,-6.4000000953674316
-352.55738886386462,4.8000001907348633
-351.400373377548,-0.20000000298023224
-350.24358111712354,1.2000000476837158
-349.08701203792953,-0.40000000596046448
-347.93066609530615,5.4000000953674316
-346.77454324460632,-4.1999998092651367
-345.61864344119567,2
-344.46296664044894,1.6000000238418579
-343.30751279775541,0.60000002384185791
-342.15228186851164,0.40000000596046448
-340.99727380812146,-8.6000003814697266
-339.84248857200873,-4.4000000953674316
-338.68792611559365,2.7999999523162842
-337.53358639432554,4.8000001907348633
-336.37946936365006,3.2000000476837158
-335.2255749790329,6.1999998092651367
-334.07190319594883,1.6000000238418579
-332.918453969869,-0.20000000298023224
-331.76522725630093,2.5999999046325684
-330.61222301074304,-0.60000002384185791
-329.45944118871012,1.2000000476837158
-328.30688174573515,1.6000000238418579
-327.15454463734568,1.7999999523162842
-326.00242981909287,1.7999999523162842
-324.85053724653517,4.5999999046325684
-323.69886687524559,-2.7999999523162842
-322.54741866080076,2.4000000953674316
-321.39619255879552,-3
-320.24518852482652,-3.7999999523162842
-319.09440651450677,3.5999999046325684
-317.9438464834584,-3.7999999523162842
-316.79350838731807,3.2000000476837158
-315.64339218173154,2.2000000476837158
-314.49349782234822,-6.8000001907348633
-313.34382526483751,5.1999998092651367
-312.19437446487791,-9
-311.04514537814794,0.60000002384185791
-309.89613796035519,-5.1999998092651367
-308.74735216720546,-4
-307.59878795441546,6
-306.45044527772006,-1
-305.30232409285418,-5.1999998092651367
-304.1544243555727,-0.20000000298023224
-303.00674602163963,-1.6000000238418579
-301.85928904682078,-2.5999999046325684
-300.71205338690925,-9.1999998092651367
-299.56503899768541,-1
-298.41824583496964,-2.7999999523162842
-297.27167385456596,-5.1999998092651367
-296.12532301230749,0
-294.97919326402553,-10
-293.83328456556956,1.2000000476837158
-292.6875968728,-7.4000000953674316
-291.54213014158267,-3.4000000953674316
-290.39688432779803,-0.800000011920929
-289.25185938733557,-3.4000000953674316
-288.10705527609389,3
-286.96247194998614,4.5999999046325684
-285.81810936493457,-2.5999999046325684
-284.67396747687235,3
-283.53004624174173,-1
-282.38634561549406,-2.5999999046325684
-281.24286555409708,0.800000011920929
-280.09960601352395,-2.5999999046325684
-278.95656694976424,-4.5999999046325684
-277.81374831880566,0.40000000596046448
-276.67115007666143,-5
-275.52877217934838,-3.2000000476837158
-274.38661458289062,3.5999999046325684
-273.24467724332862,-4.1999998092651367
-272.10296011671562,7
-270.961463159103,1.3999999761581421
-269.82018632656946,4
-268.67912957519366,-5.8000001907348633
-267.53829286106156,-4.1999998092651367
-266.39767614028096,2.7999999523162842
-265.25727936895964,-1.3999999761581421
-264.11710250322722,2
-262.97714549921329,-3.5999999046325684
-261.8374083130584,-4.8000001907348633
-260.6978909009249,5.1999998092651367
-259.55859321897515,-3
-258.41951522338059,-2.5999999046325684
-257.28065687033632,-0.40000000596046448
-256.14201811603016,-4.8000001907348633
-255.00359891667358,-3.4000000953674316
-253.86539922848715,1.2000000476837158
-252.7274190076987,-2.5999999046325684
-251.58965821054153,-1
-250.45211679326894,-2
-249.31479471214516,-4.8000001907348633
-248.17769192343076,2.7999999523162842
-247.04080838342088,-5.5999999046325684
-245.90414404839248,-6.8000001907348633
-244.76769887465525,0
-243.63147281852252,-1.2000000476837158
-242.49546583631673,-3.5999999046325684
-241.35967788436938,-6.8000001907348633
-240.22410891902837,1.6000000238418579
-239.08875889664705,-3.2000000476837158
-237.95362777358059,-2.7999999523162842
-236.81871550621872,-8.1999998092651367
-235.6840220509439,0.20000000298023224
-234.54954736414584,-1.3999999761581421
-233.41529140224156,1.3999999761581421
-232.28125412163718,-0.40000000596046448
-231.14743547876969,2.4000000953674316
-230.0138354300725,-2
-228.88045393199536,-3.5999999046325684
-227.74729094100257,2.4000000953674316
-226.61434641355845,-1.3999999761581421
-225.48162030614367,-1.3999999761581421
-224.349112575248,2.2000000476837158
-223.21682317737577,-6.4000000953674316
-222.08475206903313,1.3999999761581421
-220.95289920674804,-4.1999998092651367
-219.82126454705212,3.5999999046325684
-218.68984804648244,-1
-217.5586496615997,1
-216.427669348961,-1.6000000238418579
-215.29690706514521,-1.7999999523162842
-214.16636276673125,-0.800000011920929
-213.03603641032169,0.800000011920929
-211.90592795251541,-3
-210.77603734992772,3.2000000476837158
-209.64636455919026,-3
-208.51690953693469,1.6000000238418579
-207.38767223980722,-4.1999998092651367
-206.25865262447223,-0.60000002384185791
-205.12985064758868,0.40000000596046448
-204.00126626584097,0.40000000596046448
-202.87289943590986,-3.5999999046325684
-201.74475011450158,0.40000000596046448
-200.61681825831874,-2.7999999523162842
-199.48910382408758,0.800000011920929
-198.36160676853797,-1.6000000238418579
-197.23432704840525,5.8000001907348633
-196.10726462043749,-0.60000002384185791
-194.98041944140277,0.60000002384185791
-193.85379146806918,0.20000000298023224
-192.72738065721751,0.800000011920929
-191.6011869656395,-4.4000000953674316
-190.47521035013779,-1.6000000238418579
-189.34945076753138,-4
-188.22390817463383,3.4000000953674316
-187.09858252828053,-6.5999999046325684
-185.97347378531958,-3
-184.84858190259911,6.8000001907348633
-183.72390683699086,0.800000011920929
-182.59944854536116,1.7999999523162842
-181.47520698460175,-4.8000001907348633
-180.35118211159897,5.8000001907348633
-179.22737388326641,4.8000001907348633
-178.1037822565213,4.1999998092651367
-176.9804071882827,1
-175.85724863548785,8
-174.73430655509037,3
-173.61158090404206,0.40000000596046448
-172.48907163931108,11
-171.36677871787106,13.199999809265137
-170.24470209671563,7.4000000953674316
-169.12284173284024,14.399999618530273
-168.00119758325309,13.600000381469727
-166.8797696049769,11.800000190734863
-165.75855775503624,7.4000000953674316
-164.6375619904702,17
-163.51678226832883,4.8000001907348633
-162.39621854567667,10.199999809265137
-161.27587077957287,18.799999237060547
-160.15573892710927,15.800000190734863
-159.03582294536864,22.600000381469727
-157.91612279145556,18.799999237060547
-156.79663842247828,18.399999618530273
-155.67736979555957,11.800000190734863
-154.55831686783313,12.800000190734863
-153.43947959643447,11.199999809265137
-152.32085793852275,10.800000190734863
-151.20245185125532,17.399999618530273
-150.08426129180589,13.199999809265137
-148.96628621735545,11.600000381469727
-147.84852658509953,14
-146.73098235223915,13.399999618530273
-145.61365347598803,16
-144.49653991357081,15
-143.3796416222176,9.1999998092651367
-142.26295855917488,18
-141.14649068169638,17
-140.03023794704677,14.199999809265137
-138.91420031250163,10.800000190734863
-137.79837773533836,18.799999237060547
-136.68277017286164,13.800000190734863
-135.56737758237068,17.799999237060547
-134.45219992117563,21
-133.33723714661573,25.600000381469727
-132.22248921601567,35.200000762939453
-131.10795608672197,32.799999237060547
-129.99363771609387,37.400001525878906
-128.87953406149063,45
-127.76564508029878,52.599998474121094
-126.65197072989395,44
-125.53851096768085,46.599998474121094
-124.4252657510624,41.799999237060547
-123.31223503745423,38.599998474121094
-122.19941878428472,49.599998474121094
-121.08681694899133,41.200000762939453
-119.97442948901517,47.599998474121094
-118.8622563618228,39
-117.75029752487717,45.200000762939453
-116.63855293565393,50.400001525878906
-115.52702255164331,56
-114.41570633034462,52.799999237060547
-113.30460422925898,62.400001525878906
-112.19371620590573,60.599998474121094
-111.08304221782055,74.4000015258789
-109.97258222253549,77
-108.86233617759535,91
-107.75230404056492,83
-106.64248576901082,94.5999984741211
-105.53288132051239,95
-104.42349065265807,98
-103.31431372304178,104.80000305175781
-102.20535048927377,115.59999847412109
-101.09660090898069,129.80000305175781
-99.988064939780088,133.60000610351563
-98.879742539320432,145.60000610351563
-97.771633665246554,158.80000305175781
-96.6637382752142,184.80000305175781
-95.556056326899125,195.19999694824219
-94.448587777975263,198
-93.34133258613474,220.80000305175781
-92.234290709076959,262.79998779296875
-91.1274621045086,292.60000610351563
-90.020846730150879,336.39999389648438
-88.914444543732316,370.39999389648438
-87.808255502995962,351.60000610351563
-86.7022795656867,340
-85.596516689563941,318.60000610351563
-84.490966832401682,292.60000610351563
-83.385629951977535,322.60000610351563
-82.280506006080032,312.60000610351563
-81.175594952508618,323
-80.070896749077292,348.39999389648438
-78.966411353598232,345.79998779296875
-77.862138723905446,357.39999389648438
-76.7580788178384,355.60000610351563
-75.654231593249278,377.39999389648438
-74.550597007988472,424.20001220703125
-73.447175019935457,469.79998779296875
-72.3439655869679,530.79998779296875
-71.240968666974368,540.79998779296875
-70.138184217854359,534.79998779296875
-69.035612197516457,524
-67.933252563881979,499.39999389648438
-66.831105274881338,553.20001220703125
-65.7291702884504,612
-64.62744756254142,637.4000244140625
-63.525937055112081,653.5999755859375
-62.424638724134638,632.79998779296875
-61.323552527588618,636.4000244140625
-60.222678423459,721.20001220703125
-59.122016369747143,824
-58.02156632446713,898.4000244140625
-56.92132824563123,904
-55.821302091271718,818.79998779296875
-54.721487819426329,721.20001220703125
-53.621885388145529,638.79998779296875
-52.522494755494336,585.5999755859375
-51.423315879526854,546.20001220703125
-50.324348718333567,622.79998779296875
-49.225593230001323,898.20001220703125
-48.12704937262788,1351
-47.028717104320094,1724.4000244140625
-45.930596383199372,1874.199951171875
-44.832687167392578,1680.4000244140625
-43.734989415037489,1585.800048828125
-42.637503084284617,1731
-41.540228133289929,2080.800048828125
-40.443164520223945,2498
-39.346312203260823,2667
-38.249671140592909,2592.800048828125
-37.153241290412552,2491
-36.057022610932108,2674.60009765625
-34.961015060369391,3234
-33.865218596949489,3846
-32.769633178906588,4065.199951171875
-31.6742587644967,4218.39990234375
-30.579095311970377,4324
-29.484142779594549,4515.60009765625
-28.389401125643417,4441.2001953125
-27.29487030841301,4141.7998046875
-26.200550286193902,3764
-25.106441017293037,3339.800048828125
-24.012542460020995,2899.60009765625
-22.918854572712007,2577.199951171875
-21.82537731370212,2371.199951171875
-20.7321106413292,2163.39990234375
-19.639054513960218,1872
-18.546208889949412,1630.4000244140625
-17.453573727678304,1514.800048828125
-16.361148985530235,1387
-15.268934621899461,1356.800048828125
-14.176930595191152,1259.199951171875
-13.085136863823209,1238.199951171875
-11.993553386213534,1191
-10.902180120801859,1163
-9.8110170260297309,1113
-8.720064060353252,1106.800048828125
-7.62932118223398,1036.5999755859375
-6.5387883501425677,886
-5.448465522567858,587.79998779296875
-4.3583526579986938,256.79998779296875
-3.2684497149384697,152.19999694824219
-2.1787566519033135,222.19999694824219
-1.0892734274111717,218
0,204.60000610351563
1.0890636717958841,244.39999389648438
2.1779176294185163,573.20001220703125
3.266561914309932,904.79998779296875
4.354996567899434,1052.199951171875
5.443221631601773,1133.800048828125
6.5312371468298807,1174.5999755859375
7.6190431549803179,1212.5999755859375
8.7066396974460076,1283.199951171875
9.7940268156035017,1341.800048828125
10.881204550825714,1393.800048828125
11.968172944472826,1458.800048828125
13.054932037890467,1556.199951171875
14.141481872427903,1677.800048828125
15.227822489416212,1831
16.313953930162825,2045.800048828125
17.399876235997,2405.800048828125
18.485589448209794,2692.199951171875
19.571093608095907,3044.39990234375
20.656388756942761,3353.800048828125
21.74147493601231,3848
22.826352186579243,4353.7998046875
23.911020549890964,4950.2001953125
24.995480067191238,5409.39990234375
26.079730779716556,5644
27.163772728685217,5554.2001953125
28.247605955324616,5321
29.331230500825768,5293
30.414646406390602,5051.60009765625
31.49785371319922,4554.7998046875
32.58085246243354,3724.199951171875
33.663642695257295,3319.800048828125
34.746224452830575,3417.60009765625
35.828597776289826,3590.800048828125
36.910762706780588,3541
37.992719285430212,3101.60009765625
39.074467553356953,2521
40.156007551660878,2228.800048828125
41.237339321447507,2189
42.318462903804175,2530.199951171875
43.39937833980548,2593.199951171875
44.48008567053148,2231.199951171875
45.560584937029489,1639
46.6408761803541,1047.199951171875
47.720959441552623,833.79998779296875
48.80083476164873,819
49.880502181658812,886.4000244140625
50.9599617426029,1004.7999877929688
52.039213485481014,1148.4000244140625
53.118257451287718,1297.5999755859375
54.197093680997568,1401.800048828125
55.275722215592396,1354
56.354143096026746,1255.199951171875
57.432356363258805,1081.4000244140625
58.510362058235842,989.4000244140625
59.588160221886938,1010.7999877929688
60.665750895142992,1050.800048828125
61.743134118913076,1035
62.820309934106263,998.79998779296875
63.89727838161707,893.4000244140625
64.974039502334563,853.79998779296875
66.050593337131431,848.4000244140625
67.12693992687673,915.5999755859375
68.203079312430418,935
69.2790115346379,918
70.354736634337314,827.4000244140625
71.43025465235587,724.79998779296875
72.505565629522607,688.20001220703125
73.580669606635638,650.4000244140625
74.655566624502171,647.20001220703125
75.730256723907587,647.5999755859375
76.804739945639085,637.20001220703125
77.879016330462036,624.79998779296875
78.953085919145451,605.4000244140625
80.026948752434691,590.20001220703125
81.10060487107512,593.5999755859375
82.174054315803,592.20001220703125
83.247297127336424,641
84.320333346397092,696.4000244140625
85.39316301368126,740.5999755859375
86.465786169887,695.4000244140625
87.538202855701456,630
88.610413111804519,557.79998779296875
89.682416978852416,486.79998779296875
90.754214497510475,454.39999389648438
91.825805708424014,416.60000610351563
92.897190652229256,395.60000610351563
93.968369369558786,375.79998779296875
95.039341901027,339.79998779296875
96.110108287242838,325.60000610351563
97.180668568809779,291.79998779296875
98.251022786316753,276.20001220703125
99.321170980345414,255.39999389648438
100.39111319146468,250.39999389648438
101.46084946023984,237.80000305175781
102.53037982722162,213.39999389648438
103.59970433295166,217.39999389648438
104.66882301796431,217.60000610351563
105.73773592278485,200.19999694824219
106.8064430879258,200.60000610351563
107.87494455389424,190.39999389648438
108.94324036118269,171.39999389648438
110.01133055028004,158
111.07921516166243,149.80000305175781
112.1468942357933,143.80000305175781
113.21436781313787,142.39999389648438
114.28163593413956,126.19999694824219
115.3486986392345,122.80000305175781
116.41555596884973,120
117.48220796341775,124.19999694824219
118.54865466334195,116
119.61489610901845,119.80000305175781
120.68093234084154,112.40000152587891
121.74676339919642,113.80000305175781
122.81238932445376,135.60000610351563
123.87781015697874,125.59999847412109
124.94302593711836,140.80000305175781
126.00803670522509,131.60000610351563
127.07284250162593,117.19999694824219
128.13744336665695,112
129.20183934062334,91.4000015258789
130.26603046383752,81.4000015258789
131.33001677659377,75.5999984741211
132.3937983191845,70.5999984741211
133.4573751318876,65.4000015258789
134.52074725496641,53.599998474121094
135.58391472868425,63
136.6468775932899,48.599998474121094
137.70963588902487,53
138.77218965612155,52.599998474121094
139.83453893480146,58.799999237060547
140.89668376527698,54.599998474121094
141.95862418775323,46.599998474121094
143.02036024241897,48.799999237060547
144.0818919694666,53
145.14321940906302,53.599998474121094
146.20434260137881,47
147.26526158656816,55.599998474121094
148.32597640478161,48.400001525878906
149.38648709615154,47.599998474121094
150.4467937008103,51.599998474121094
151.50689625887571,53
152.5667948104583,50.400001525878906
153.62648939565406,59
154.68598005455897,69
155.74526682725445,69.199996948242188
156.8043497538074,64
157.86322887428469,63.200000762939453
158.9219042287441,56.200000762939453
159.98037585721977,50.200000762939453
161.03864379975494,52
162.096708096371,59.200000762939453
163.15456878708392,50.599998474121094
164.21222591190417,65
165.2696795108277,52
166.32692962384135,66.5999984741211
167.38397629092287,55.400001525878906
168.4408195520482,58
169.4974594471696,45.400001525878906
170.55389601624302,40.200000762939453
171.61012929921162,30.600000381469727
172.66615933600406,29
173.7219861665435,23.200000762939453
174.7776098307495,30.600000381469727
175.83303036851612,15.399999618530273
176.88824781974836,17.799999237060547
177.94326222432755,17
178.99807362213323,10.600000381469727
180.05268205302673,12.399999618530273
181.10708755687847,15.800000190734863
182.16129017352432,15.199999809265137
183.21528994280743,9.6000003814697266
184.26908690456366,9
185.32268109860706,12.399999618530273
186.37607256475167,7.4000000953674316
187.42926134280606,12.600000381469727
188.482247472557,13.399999618530273
189.53503099378759,7.8000001907348633
190.58761194627914,11.800000190734863
191.63999036979294,14
192.692166304083,11.399999618530273
193.7441397888997,8
194.79591086397886,9
195.8474795690563,12.199999809265137
196.89884594384057,12.800000190734863
197.95001002804929,14.600000381469727
199.00097186138009,11.399999618530273
200.05173148352878,13.399999618530273
201.10228893417116,11.600000381469727
202.15264425298847,6
203.2027974796365,13.199999809265137
204.25274865377651,5.4000000953674316
205.30249781504972,13
206.35204500309737,13.399999618530273
207.4013902575407,4
208.45053361800274,14.199999809265137
209.49947512409562,12.399999618530273
210.54821481540785,3.4000000953674316
211.59675273154062,12.399999618530273
212.64508891206788,17.399999618530273
213.69322339656719,15
214.74115622459976,15
215.78888743571224,17.600000381469727
216.83641706946219,13.399999618530273
217.88374516537988,18.799999237060547
218.93087176298468,19.799999237060547
219.97779690180323,20
221.02452062133852,11.399999618530273
222.0710429610881,18.600000381469727
223.11736396054403,9.6000003814697266
224.16348365918566,10.199999809265137
225.2094020964887,10
226.25511931190886,12.800000190734863
227.3006353449,7.8000001907348633
228.34595023491056,12
229.39106402137622,2.2000000476837158
230.43597674371449,3
231.48068844134468,10.800000190734863
232.52519915367702,-2
233.569508920109,8
234.61361778002538,3.7999999523162842
235.65752577281455,7
236.70123293784127,7.1999998092651367
237.74473931446664,7.5999999046325684
238.78804494204451,10.600000381469727
239.83114985991779,5.1999998092651367
240.87405410742394,2.5999999046325684
241.91675772388407,7.1999998092651367
242.95926074861745,3.5999999046325684
244.00156322093062,5.5999999046325684
245.04366518011921,3.7999999523162842
246.08556666547338,3.2000000476837158
247.12726771627604,1.2000000476837158
248.16876837179188,7.1999998092651367
249.21006867128381,1.7999999523162842
250.25116865401105,-3.5999999046325684
251.29206835920559,2
252.33276782611392,-3
253.37326709395347,-1.6000000238418579
254.41356620194165,-2.4000000953674316
255.45366518928495,-3.2000000476837158
256.49356409518441,-3
257.53326295883016,2.2000000476837158
258.57276181939596,4.5999999046325684
259.61206071605739,-1.3999999761581421
260.65115968797545,1.2000000476837158
261.69005877429845,5.1999998092651367
262.72875801417831,6.8000001907348633
263.76725744674513,-3.4000000953674316
264.80555711111992,6
265.84365704643096,-0.40000000596046448
266.88155729177379,1.3999999761581421
267.91925788625122,3.4000000953674316
268.95675886895515,8.6000003814697266
269.99406027896839,-1.2000000476837158
271.03116215535192,1.2000000476837158
272.06806453717945,-1
273.10476746349923,2
274.14127097334858,-0.20000000298023224
275.17757510577758,-0.20000000298023224
276.21367989980354,4.1999998092651367
277.24958539444378,1
278.28529162870836,5.4000000953674316
279.32079864159641,-5.5999999046325684
280.35610647209614,2.4000000953674316
281.39121515919214,-1.3999999761581421
282.42612474185262,6.4000000953674316
283.46083525904578,-0.800000011920929
284.49534674972347,-5.8000001907348633
285.52965925283388,3.5999999046325684
286.56377280730703,2
287.59768745207475,-0.800000011920929
288.63140322605432,3.4000000953674316
289.66492016815391,2.5999999046325684
290.6982383172799,2.7999999523162842
291.73135771231318,-0.60000002384185791
292.76427839214739,0.60000002384185791
293.79700039564887,-4
294.82952376168032,0
295.86184852910264,5.4000000953674316
296.89397473676581,-4.1999998092651367
297.92590242349979,2.4000000953674316
298.95763162813637,-4.4000000953674316
299.9891623894946,3
301.02049474638625,-2.4000000953674316
302.05162873761219,1
303.082564401966,-7.1999998092651367
304.1133017782322,-8
305.14384090518251,-11.199999809265137
306.1741818215869,-6
307.20432456620438,-6.4000000953674316
308.23426917777579,3
309.26401569504924,4.8000001907348633
310.29356415674738,8
311.32291460160013,-1
312.35206706831377,-1.2000000476837158
313.38102159559276,6
314.40977822213063,-6.1999998092651367
315.43833698661547,1.7999999523162842
316.46669792772627,2
317.49486108412748,1.7999999523162842
318.52282649447989,9.6000003814697266
319.55059419743338,4.5999999046325684
320.5781642316324,21
321.60553663570317,17.600000381469727
322.63271144827559,27.200000762939453
323.65968870795768,41.599998474121094
324.68646845335934,44.400001525878906
325.71305072307769,50.599998474121094
326.73943555570077,46
327.76562298980934,48
328.79161306396782,41.599998474121094
329.81740581674421,36.599998474121094
330.84300128668838,13.600000381469727
331.86839951234651,9.8000001907348633
332.89360053224482,1
333.9186043849204,7.1999998092651367
334.9434111088849,-3.5999999046325684
335.96802074264451,-0.800000011920929
336.9924333247036,4.5999999046325684
338.016648893552,-4.1999998092651367
339.04066748766672,0.40000000596046448
340.06448914552857,-6.5999999046325684
341.08811390559458,-1.7999999523162842
342.11154180632184,-4.5999999046325684
343.13477288616014,-2.4000000953674316
344.15780718354108,-8.1999998092651367
345.1806447368981,-1
346.20328558465189,-7.8000001907348633
347.22572976520678,-3
348.24797731697436,-2.4000000953674316
349.2700282783444,-3
350.29188268769758,-3.5999999046325684
351.3135405834164,-8.1999998092651367
352.3350020038597,-1.7999999523162842
353.35626698739179,-3
354.37733557236061,-7.4000000953674316
355.39820779711044,-2.5999999046325684
356.41888369996741,-1.6000000238418579
357.43936331925579,-5.4000000953674316
358.4596466932926,-5.4000000953674316
359.47973386038029,-6.4000000953674316
360.4996248588177,-0.40000000596046448
361.51931972688908,-4.5999999046325684
362.53881850287689,-5
363.55812122505267,-6.5999999046325684
364.57722793167341,-4.1999998092651367
365.59613866099608,-5.5999999046325684
366.61485345126675,3.4000000953674316
367.63337234071332,-2.7999999523162842
368.65169536756548,-2.5999999046325684
369.66982257004383,-10.800000190734863
370.68775398635444,-5.5999999046325684
371.70548965469789,-2.7999999523162842
372.7230296132675,-6.1999998092651367
373.74037390024205,-5.8000001907348633
374.75752255379666,-9.1999998092651367
375.7744756120992,-5.8000001907348633
376.79123311330659,-4.1999998092651367
377.80779509556305,-2
378.82416159700733,-6.8000001907348633
379.84033265577273,1.6000000238418579
380.856308309978,-4.8000001907348633
381.87208859774,1.2000000476837158
382.88767355716118,-5.5999999046325684
383.90306322633296,-3.2000000476837158
384.918257643345,-9
385.933256846276,-1.7999999523162842
386.94806087319375,-6.1999998092651367
387.96266976215884,-8
388.97708355122268,-2.4000000953674316
389.99130227842943,-0.20000000298023224
391.005325981816,-6.5999999046325684
392.01915469940104,-8.8000001907348633
393.03278846921057,-9.3999996185302734
394.04622732924145,-0.60000002384185791
395.05947131750145,-5.1999998092651367
396.072520471982,-6.8000001907348633
397.08537483066175,2.5999999046325684
398.09803443151395,-9
399.11049931250454,-8.6000003814697266
400.12276951158856,-7.1999998092651367
401.13484506671739,-1
402.14672601582424,-7.4000000953674316
403.15841239684596,-2.7999999523162842
404.16990424769574,3
405.18120160629041,-3.5999999046325684
406.19230451053772,-8.3999996185302734
407.20321299832722,-0.800000011920929
408.21392710754844,-12.399999618530273
409.22444687608004,-3.2000000476837158
410.2347723417879,-1
411.24490354253794,-7.4000000953674316
412.25484051617786,-1.2000000476837158
413.26458330055357,1.6000000238418579
414.27413193350003,-10.199999809265137
415.28348645284314,-1.7999999523162842
416.29264689639967,-2.5999999046325684
417.30161330197734,-7.5999999046325684
418.310385707382,-10.800000190734863
419.31896415039773,-3.7999999523162842
420.327348668814,0.60000002384185791
421.33553930040034,-10.199999809265137
422.34353608292622,-6.8000001907348633
423.35133905414659,-8.3999996185302734
424.35894825181094,3.4000000953674316
425.366363713656,-5.8000001907348633
426.37358547742224,-6.5999999046325684
427.38061358082268,0.20000000298023224
428.38744806157592,-4
429.39408895738779,-8
430.40053630595321,-4.1999998092651367
431.40679014495618,-5.5999999046325684
432.41285051209161,-3
433.41871744501259,2.7999999523162842
434.42439098139221,-4.1999998092651367
435.42987115888172,-2.5999999046325684
436.43515801512694,-8.6000003814697266
437.4402515877664,-2
438.44515191442224,0.20000000298023224
439.44985903272209,-0.40000000596046448
440.45437298026809,-5.4000000953674316
441.45869379467149,-1.7999999523162842
442.4628215135217,-3
443.46675617440451,-3
444.47049781489659,-1.7999999523162842
445.47404647256735,-7.1999998092651367
446.47740218497347,-6.4000000953674316
447.480564989668,-4
448.483534924193,1.2000000476837158
449.48631202608703,2.7999999523162842
450.48889633286853,-5
451.49128788205962,-6.5999999046325684
452.49348671116604,-5.1999998092651367
453.49549285768262,-3.2000000476837158
454.49730635911328,-4.1999998092651367
455.49892725292921,-4
456.50035557661067,-4
457.50159136762159,-1.2000000476837158
458.50263466341676,-8.1999998092651367
459.503485501451,-6.8000001907348633
460.50414391915729,-3
461.50460995397043,1
462.5048836433125,-3.4000000953674316
463.50496502460373,0.60000002384185791
464.50485413524257,0
465.50455101262742,0.20000000298023224
466.50405569415489,-5.1999998092651367
467.50336821719429,4.8000001907348633
468.50248861912587,13.399999618530273
469.50141693731166,0.800000011920929
470.50015320910279,9.3999996185302734
471.49869747185039,16
472.49704976288922,9
473.49521011955221,10
474.49317857915776,1.6000000238418579
475.49095517901515,2
476.48853995643731,-3
477.48593294871353,3.7999999523162842
478.48313419313126,-4
479.48014372697253,-3.4000000953674316
480.47696158750477,-5.5999999046325684
481.47358781198818,-3.2000000476837158
482.47002243768111,2
483.46626550182373,-8.1999998092651367
484.46231704165621,-8.1999998092651367
485.45817709440053,1.6000000238418579
486.45384569728049,-1.2000000476837158
487.44932288750715,1.6000000238418579
488.44460870228249,-4.4000000953674316
489.43970317880303,-5.5999999046325684
490.4346063542489,-4.5999999046325684
491.42931826580025,-1
492.4238389506263,-1.7999999523162842
493.41816844588539,-6.4000000953674316
494.41230678873217,-5.8000001907348633
495.40625401630859,-6.8000001907348633
496.40001016574752,0.800000011920929
497.39357527418179,-2.4000000953674316
498.3869493787206,-2.5999999046325684
499.3801325164859,-5.5999999046325684
500.37312472456688,-10.199999809265137
501.36592604006182,-7.4000000953674316
502.35853650005447,-8.8000001907348633
503.35095614162128,-3
504.34318500183144,4.5999999046325684
505.33522311774323,-8.8000001907348633
506.32707052640581,-3.2000000476837158
507.3187272648629,-8.1999998092651367
508.31019337014914,-6.1999998092651367
509.30146887928822,-2
510.29255382930023,-6
511.28344825719068,-11.199999809265137
512.27415219996328,-5.5999999046325684
513.26466569460717,-7
514.25498877810969,3.2000000476837158
515.24512148744543,-11.199999809265137
516.23506385957626,-6
517.22481593147131,-3.2000000476837158
518.214377740067,-5.5999999046325684
519.20374932231425,-3.7999999523162842
520.19293071514585,-3.5999999046325684
521.18192195548909,-2
522.17072308025308,-3.7999999523162842
523.15933412635422,-2.7999999523162842
524.14775513068525,-6.8000001907348633
525.13598613014619,0.800000011920929
526.12402716160977,-1
527.11187826196146,-1.2000000476837158
528.09953946806127,-4.4000000953674316
529.08701081677282,-3.4000000953674316
530.07429234493793,0.40000000596046448
531.06138408940751,-6
532.048286087007,-6
533.03499837456729,-6.1999998092651367
534.0215209889011,-5.5999999046325684
535.00785396682113,4.4000000953674316
535.99399734512008,-0.60000002384185791
536.97995116059792,-6
537.965715450031,-9
538.95129025019924,-0.40000000596046448
539.93667559786809,-6.4000000953674316
540.921871529792,-4
541.90687808272924,-2.4000000953674316
542.89169529341052,-5.4000000953674316
543.87632319857767,-4.1999998092651367
544.86076183495788,-5.1999998092651367
545.84501123925838,-2.7999999523162842
546.82907144819546,-4.4000000953674316
547.8129424984636,-1.3999999761581421
548.7966244267609,-9
549.78011726976547,-7
550.76342106415723,-9
551.74653584660155,-1
552.7294616537547,-6.1999998092651367
553.71219852227114,-8.1999998092651367
554.69474648879077,-9
555.677105589948,-3.4000000953674316
556.65927586237194,1.6000000238418579
557.64125734267327,-6
558.62305006746465,2.7999999523162842
559.604654073346,-7
560.58606939691163,-2
561.56729607475063,-2.4000000953674316
562.54833414342647,-3.4000000953674316
563.5291836395154,-8
564.50984459957726,-5.1999998092651367
565.490317060161,-9.1999998092651367
566.4706010578102,2.5999999046325684
567.450696629061,-7.5999999046325684
568.43060381044052,1.2000000476837158
569.41032263846137,1.6000000238418579
570.38985314963975,5.1999998092651367
571.36919538047732,7.4000000953674316
572.348349367463,8
573.32731514708939,-2.2000000476837158
574.30609275582538,-1.2000000476837158
575.28468223014534,2
576.26308360651274,-0.60000002384185791
577.24129692136921,-9.8000001907348633
578.219322211171,-1.3999999761581421
579.197159512345,0
580.17480886132762,-4.8000001907348633
581.15227029453308,-6
582.12954384837394,-3.5999999046325684
583.10662955925181,-7.5999999046325684
584.08352746356286,-4.1999998092651367
585.06023759769778,-1.6000000238418579
586.03675999802908,-7.4000000953674316
587.01309470092929,2.2000000476837158
587.98924174276181,-7
588.965201159881,-5.4000000953674316
589.940972988632,-6.5999999046325684
590.916557265351,0.20000000298023224
591.89195402637051,-10
592.86716330800846,-6.4000000953674316
593.84218514657914,3.7999999523162842
594.81701957839141,-8.3999996185302734
595.79166663973774,-3.4000000953674316
596.76612636690516,-3.2000000476837158
597.74039879617885,0.20000000298023224
598.71448396382948,-6.4000000953674316
599.68838190611859,-3.2000000476837158
600.66209265930229,1.2000000476837158
601.63561625963666,3.7999999523162842
602.60895274334871,-6.4000000953674316
603.58210214668,-4.5999999046325684
604.55506450584653,-6.1999998092651367
605.52783985706992,-5
606.50042823655167,-7.4000000953674316
607.472829680497,0
608.44504422508908,-8
609.41707190651687,-7.4000000953674316
610.38891276095092,-3
611.36056682456,4.1999998092651367
612.332034133502,-1
613.3033147239239,-6.4000000953674316
614.2744086319708,1.2000000476837158
615.24531589377693,-0.20000000298023224
616.216036545462,3.7999999523162842
617.18657062315287,2.2000000476837158
618.15691816295475,2.5999999046325684
619.12707920096727,-4.4000000953674316
620.09705377328282,-0.800000011920929
621.06684191599379,-12.800000190734863
622.03644366517074,-3.7999999523162842
623.0058590568824,-3.2000000476837158
623.97508812719207,-6.1999998092651367
624.94413091215029,-6.4000000953674316
625.912987447804,-2.7999999523162842
626.88165777019094,-2.5999999046325684
627.85014191533446,-5.5999999046325684
628.81843991925962,-1.3999999761581421
629.78655181797694,4.1999998092651367
630.75447764748969,-2
631.72221744379385,-0.40000000596046448
632.68977124288176,-1.3999999761581421
633.65713908072576,-3.7999999523162842
634.62432099330545,5.1999998092651367
635.59131701657861,-4
636.55812718650486,-7.4000000953674316
637.52475153902742,1.6000000238418579
638.49119011009134,-4.5999999046325684
639.45744293562529,-2.2000000476837158
640.42351005155251,1.7999999523162842
641.38939149379257,-1.6000000238418579
642.355087298245,-3.2000000476837158
643.32059750081135,-5.4000000953674316
644.28592213738557,-2.5999999046325684
645.25106124385456,1.7999999523162842
646.216014856087,-5.4000000953674316
647.18078300994785,-5.4000000953674316
648.1453657413058,-3.2000000476837158
649.10976308600038,-9.6000003814697266
650.07397507988208,0.40000000596046448
651.03800175878678,-11.600000381469727
652.00184315853767,-4.4000000953674316
652.96549931495247,1.2000000476837158
653.92897026384526,-8.8000001907348633
654.89225604101739,-12.800000190734863
655.85535668226476,0.800000011920929
656.81827222337415,-1.3999999761581421
657.78100270012328,-2.7999999523162842
658.74354814828257,2.4000000953674316
659.70590860361335,-8
660.66808410187514,-4.4000000953674316
661.63007467881289,-3.5999999046325684
662.59188037016247,-3.2000000476837158
663.55350121165611,-2.5999999046325684
664.514937239017,-9
665.47618848796083,-0.40000000596046448
666.4372549941927,-5.4000000953674316
667.39813679341023,-2.2000000476837158
668.35883392130745,-2.2000000476837158
669.31934641356565,-7.1999998092651367
670.27967430585886,-5.4000000953674316
671.23981763385382,-4.4000000953674316
672.19977643321,-1.7999999523162842
673.15955073957775,-1.7999999523162842
674.119140588602,0
675.07854601591134,-3.2000000476837158
676.03776705714154,-5.1999998092651367
676.99680374790478,-1.3999999761581421
677.95565612381506,-6.1999998092651367
678.91432422047183,0.20000000298023224
679.87280807347634,0.60000002384185791
680.83110771841166,-2.5999999046325684
681.78922319085541,-1
682.74715452638156,-11
683.70490176055318,-8.1999998092651367
684.66246492892424,-1.3999999761581421
