-777.74687133807856,15.199999809265137
-776.50770429765,16.600000381469727
-775.26877705141487,14
-774.03008955063888,24
-772.79164174658763,5
-771.55343359055223,17.200000762939453
-770.31546503381287,6.4000000953674316
-769.07773602767884,16.600000381469727
-767.8402465234667,14
-766.60299647250758,13.199999809265137
-765.36598582614351,14.199999809265137
-764.12921453572744,12.199999809265137
-762.89268255262323,17.799999237060547
-761.65638982821292,14.199999809265137
-760.42033631388222,10.800000190734863
-759.184521961035,18
-757.948946721086,17.399999618530273
-756.71361054546833,11.399999618530273
-755.47851338560758,16.200000762939453
-754.24365519296589,17.600000381469727
-753.009035918998,21.799999237060547
-751.77465551518071,11
-750.5405139330087,17.200000762939453
-749.30661112396592,18.799999237060547
-748.0729470395836,16
-746.8395216313711,13.399999618530273
-745.60633485086328,11
-744.3733866496168,10.399999618530273
-743.14067697918108,12
-741.90820579113461,10.399999618530273
-740.67597303705952,14.600000381469727
-739.44397866855252,20
-738.21222263721756,12
-736.98070489468046,19
-735.749425392567,16.200000762939453
-734.51838408252479,15.800000190734863
-733.28758091621239,15.800000190734863
-732.057015845292,15.199999809265137
-730.82668882144753,11.399999618530273
-729.59659979637036,9.1999998092651367
-728.366748721759,12.600000381469727
-727.13713554934475,17.200000762939453
-725.90776023084072,15.600000381469727
-724.67862271799277,13.199999809265137
-723.449722962554,15
-722.22106091628848,12.600000381469727
-720.99263653096386,16.600000381469727
-719.76444975838785,9.3999996185302734
-718.53650055034268,14
-717.308788858647,19.799999237060547
-716.08131463512655,18.200000762939453
-714.85407783161827,14.600000381469727
-713.62707839996983,10.800000190734863
-712.40031629203258,11
-711.17379145969062,10.600000381469727
-709.94750385482075,18.200000762939453
-708.72145342932527,13.800000190734863
-707.49564013510644,14
-706.27006392408839,12.600000381469727
-705.04472474819522,17.799999237060547
-703.81962255938379,11
-702.59475730959639,6.8000001907348633
-701.3701289508117,13
-700.14573743500478,16.799999237060547
-698.9215827141652,16.600000381469727
-697.69766474030075,19.200000762939453
-696.47398346541922,10.800000190734863
-695.25053884156114,20.799999237060547
-694.02733082075611,14.399999618530273
-692.80435935505557,17.600000381469727
-691.58162439652915,13.399999618530273
-690.35912589724649,16.600000381469727
-689.13686380929175,7.8000001907348633
-687.91483808476733,9.1999998092651367
-686.69304867578649,17.399999618530273
-685.47149553447343,7.8000001907348633
-684.25017861295237,12.399999618530273
-683.02909786337659,9.1999998092651367
-681.80825323790668,12.399999618530273
-680.5876446887105,11.199999809265137
-679.3672721679668,15
-678.14713562787256,5.5999999046325684
-676.92723502063564,19.399999618530273
-675.70757029846391,7
-674.48814141360162,13.600000381469727
-673.26894831827849,12.199999809265137
-672.04999096475331,13.600000381469727
-670.83126930528488,15.199999809265137
-669.61278329215747,13.399999618530273
-668.39453287765537,19.200000762939453
-667.176518014081,2
-665.95873865374051,17.399999618530273
-664.7411947489727,9.8000001907348633
-663.5238862520946,11.600000381469727
-662.30681311546687,8.6000003814697266
-661.0899752914429,18.399999618530273
-659.87337273240155,6.4000000953674316
-658.6570053907144,15.800000190734863
-657.44087321878942,11.399999618530273
-656.22497616902,14.600000381469727
-655.009314193836,10.399999618530273
-653.79388724565979,15.800000190734863
-652.57869527693947,13
-651.363738240123,19.200000762939453
-650.14901608768014,18.399999618530273
-648.93452877208438,13.800000190734863
-647.720276245831,10.399999618530273
-646.5062584614152,9.8000001907348633
-645.29247537135416,11.600000381469727
-644.078926928165,17.200000762939453
-642.86561308439377,14.800000190734863
-641.65253379257956,7
-640.43968900529035,14.399999618530273
-639.22707867508689,16.200000762939453
-638.01470275456631,14.199999809265137
-636.80256119630758,14.399999618530273
-635.590653952926,9.1999998092651367
-634.37898097704056,12.800000190734863
-633.16754222128111,15.399999618530273
-631.95633763828118,6.4000000953674316
-630.745367180707,10.199999809265137
-629.534630801214,14.800000190734863
-628.32412845248655,12
-627.11386008720547,15.600000381469727
-625.9038256580734,12.800000190734863
-624.69402511780754,11.800000190734863
-623.48445841912508,18.399999618530273
-622.27512551476138,10.800000190734863
-621.0660263574664,18.200000762939453
-619.85716089999733,13.399999618530273
-618.64852909512592,19.399999618530273
-617.44013089563123,13.399999618530273
-616.2319662543141,13
-615.0240351239645,13.800000190734863
-613.81633745741237,3.7999999523162842
-612.60887320749134,13.600000381469727
-611.40164232702409,11.199999809265137
-610.194644768877,9.3999996185302734
-608.98788048590177,10.399999618530273
-607.781349430983,13.399999618530273
-606.57505155700892,10.399999618530273
-605.36898681687126,15.399999618530273
-604.1631551634764,15.600000381469727
-602.95755654975983,7.8000001907348633
-601.75219092864245,15.800000190734863
-600.54705825307065,9.6000003814697266
-599.34215847600535,15
-598.13749155041478,6.1999998092651367
-596.93305742927441,7.1999998092651367
-595.72885606557793,13.600000381469727
-594.52488741232992,14
-593.32115142254224,14.800000190734863
-592.117648049245,13
-590.91437724546449,3.5999999046325684
-589.71133896426,15.600000381469727
-588.50853315869062,13
-587.30595978182646,12
-586.10361878675576,15.600000381469727
-584.90151012657043,8.1999998092651367
-583.69963375437328,8.6000003814697266
-582.49798962329442,19.600000381469727
-581.296577686453,10
-580.09539789699556,10.800000190734863
-578.894450208074,15.800000190734863
-577.69373457285474,17.200000762939453
-576.4932509445116,11.600000381469727
-575.29299927623651,19
-574.09297952122142,6.4000000953674316
-572.89319163268192,11
-571.69363556384451,7.4000000953674316
-570.49431126793752,8.1999998092651367
-569.29521869820383,14.199999809265137
-568.09635780790632,18.200000762939453
-566.89772855030969,14.800000190734863
-565.69933087869686,9.6000003814697266
-564.50116474635433,14.800000190734863
-563.30323010658867,10
-562.1055269127155,19.399999618530273
-560.90805511805775,13.800000190734863
-559.710814675951,9.8000001907348633
-558.513805539751,15.199999809265137
-557.31702766280978,10.199999809265137
-556.12048099851017,13.199999809265137
-554.92416550022062,2.4000000953674316
-553.72808112134589,11.800000190734863
-552.53222781529075,12.199999809265137
-551.33660553547088,9.8000001907348633
-550.14121423531651,10.600000381469727
-548.94605386826515,8.8000001907348633
-547.75112438777614,10.199999809265137
-546.55642574730518,9.3999996185302734
-545.361957900328,10.800000190734863
-544.167720800333,7
-542.97371440082134,17.799999237060547
-541.77993865529243,18.600000381469727
-540.58639351727652,11.199999809265137
-539.39307894030026,9.1999998092651367
-538.19999487790665,12.800000190734863
-537.00714128365507,8.1999998092651367
-535.81451811110674,12.399999618530273
-534.622125313841,11.600000381469727
-533.42996284544643,11.399999618530273
-532.23803065952234,6.4000000953674316
-531.04632870968271,11
-529.85485694955059,8.8000001907348633
-528.66361533275631,12
-527.47260381295564,5.5999999046325684
-526.28182234379165,17
-525.09127087894194,5.1999998092651367
-523.90094937208778,9.1999998092651367
-522.71085777691223,7.5999999046325684
-521.52099604712748,12
-520.33136413644206,13.600000381469727
-519.14196199858088,8.3999996185302734
-517.95278958728341,9
-516.76384685629819,7.1999998092651367
-515.57513375937924,15.199999809265137
-514.38665025030423,6.8000001907348633
-513.19839628285263,18.200000762939453
-512.01037181081665,9.1999998092651367
-510.82257678800124,14
-509.63501116822226,13.399999618530273
-508.44767490530649,12.800000190734863
-507.26056795309523,10.199999809265137
-506.07369026543893,10.600000381469727
-504.88704179619526,9.8000001907348633
-503.70062249923831,15
-502.51443232845486,10.600000381469727
-501.32847123773354,10.199999809265137
-500.14273918098661,10.399999618530273
-498.95723611213,5.4000000953674316
-497.77196198509228,11.600000381469727
-496.58691675381124,12.199999809265137
-495.40210037224642,4
-494.21751279435375,7.4000000953674316
-493.03315397410915,11
-491.84902386549584,12.199999809265137
-490.665122422517,5.8000001907348633
-489.48144959917408,12.399999618530273
-488.29800534949027,12.199999809265137
-487.11478962749243,10
-485.93180238722562,12
-484.74904358273852,9.3999996185302734
-483.5665131681053,10.800000190734863
-482.38421109738738,9.6000003814697266
-481.2021373246771,6.4000000953674316
-480.0202918040759,12.800000190734863
-478.83867448969067,-0.40000000596046448
-477.65728533564106,12.199999809265137
-476.47612429605579,9
-475.2951913250854,11.600000381469727
-474.11448637687681,12.800000190734863
-472.93400940559695,6.1999998092651367
-471.75376036542184,6.1999998092651367
-470.57373921054023,8.6000003814697266
-469.39394589515177,7.1999998092651367
-468.21438037346343,11.600000381469727
-467.03504259970032,9.8000001907348633
-465.8559325280894,10.800000190734863
-464.67705011287944,5.1999998092651367
-463.49839530831923,5.4000000953674316
-462.31996806867937,9
-461.14176834823775,10.199999809265137
-459.96379610127588,7.5999999046325684
-458.78605128210074,4.1999998092651367
-457.60853384501752,10
-456.43124374435138,15.199999809265137
-455.25418093443295,10.600000381469727
-454.07734536960925,6
-452.90073700422909,14.600000381469727
-451.7243557926613,-1.7999999523162842
-450.54820168928381,11
-449.37227464848911,6.1999998092651367
-448.19657462467148,8.3999996185302734
-447.02110157224524,14.199999809265137
-445.84585544562833,8.3999996185302734
-444.67083619925324,10
-443.49604378757067,8.8000001907348633
-442.32147816503129,2.7999999523162842
-441.14713928610036,2.2000000476837158
-439.97302710525764,8.8000001907348633
-438.79914157698659,7.8000001907348633
-437.62548265579426,10.399999618530273
-436.45205029618774,6.1999998092651367
-435.27884445268865,9.1999998092651367
-434.10586507982771,14
-432.93311213215566,14
-431.76058556421776,8.1999998092651367
-430.58828533058477,13.199999809265137
-429.41621138583832,6
-428.24436368456008,10.399999618530273
-427.07274218135353,6
-425.90134683082943,6.4000000953674316
-424.73017758760216,14.399999618530273
-423.55923440631159,6.4000000953674316
-422.38851724159576,5.1999998092651367
-421.21802604811455,9.3999996185302734
-420.04776078052782,7.1999998092651367
-418.87772139351546,5.1999998092651367
-417.70790784176643,11.800000190734863
-416.53832007998062,8.3999996185302734
-415.36895806286157,6.5999999046325684
-414.19982174513279,7.5999999046325684
-413.03091108152512,11
-411.86222602678754,9.1999998092651367
-410.69376653566542,7.5999999046325684
-409.52553256292776,4
-408.35752406334905,7
-407.18974099171828,7.5999999046325684
-406.02218330282813,10.399999618530273
-404.85485095149124,12.600000381469727
-403.68774389253122,5.8000001907348633
-402.5208620807698,8
-401.35420547105241,12.600000381469727
-400.18777401823172,5.1999998092651367
-399.02156767717497,11.399999618530273
-397.85558640275485,6.8000001907348633
-396.68983014985315,4.1999998092651367
-395.52429887336984,8.6000003814697266
-394.35899252820855,8
-393.1939110692947,2.7999999523162842
-392.02905445155375,12
-390.8644226299275,7.5999999046325684
-389.70001555936324,4.4000000953674316
-388.53583319482641,8.1999998092651367
-387.37187549128976,10
-386.20814240373875,9.6000003814697266
-385.04463388716613,0.40000000596046448
-383.8813498965792,5.8000001907348633
-382.71829038699252,15
-381.55545531343887,9
-380.392844630951,-1.3999999761581421
-379.23045829458351,10.199999809265137
-378.06829625939463,12.600000381469727
-376.90635848045895,5.8000001907348633
-375.74464491285289,12.199999809265137
-374.58315551167289,8.8000001907348633
-373.42189023202263,7.5999999046325684
-372.26084902901857,2.5999999046325684
-371.10003185778623,4
-369.93943867346024,6.8000001907348633
-368.77906943119342,5.8000001907348633
-367.61892408613858,-0.40000000596046448
-366.45900259346672,9.3999996185302734
-365.29930490835977,5.1999998092651367
-364.13983098601057,7
-362.98058078161557,5.5999999046325684
-361.82155425039127,5
-360.66275134756324,5.1999998092651367
-359.5041720283607,4.4000000953674316
-358.34581624803286,7.4000000953674316
-357.18768396183805,5.8000001907348633
-356.02977512504185,13.199999809265137
-354.87208969291896,6.5999999046325684
-353.71462762076044,7.1999998092651367
-352.55738886386462,12.800000190734863
-351.400373377548,7.5999999046325684
-350.24358111712354,3.5999999046325684
-349.08701203792953,7
-347.93066609530615,9.3999996185302734
-346.77454324460632,5.5999999046325684
-345.61864344119567,11.199999809265137
-344.46296664044894,5.1999998092651367
-343.30751279775541,5
-342.15228186851164,6
-340.99727380812146,1
-339.84248857200873,5.4000000953674316
-338.68792611559365,16
-337.53358639432554,8.6000003814697266
-336.37946936365006,12.199999809265137
-335.2255749790329,10
-334.07190319594883,8.8000001907348633
-332.918453969869,12.199999809265137
-331.76522725630093,11.399999618530273
-330.61222301074304,10.399999618530273
-329.45944118871012,12.199999809265137
-328.30688174573515,5.8000001907348633
-327.15454463734568,9.3999996185302734
-326.00242981909287,5.8000001907348633
-324.85053724653517,16.399999618530273
-323.69886687524559,4.8000001907348633
-322.54741866080076,11.199999809265137
-321.39619255879552,4.8000001907348633
-320.24518852482652,5.8000001907348633
-319.09440651450677,8.1999998092651367
-317.9438464834584,6.1999998092651367
-316.79350838731807,3.2000000476837158
-315.64339218173154,6.8000001907348633
-314.49349782234822,2
-313.34382526483751,7.1999998092651367
-312.19437446487791,-1
-311.04514537814794,9.1999998092651367
-309.89613796035519,3.2000000476837158
-308.74735216720546,7
-307.59878795441546,8.8000001907348633
-306.45044527772006,6.5999999046325684
-305.30232409285418,1
-304.1544243555727,3.2000000476837158
-303.00674602163963,7.4000000953674316
-301.85928904682078,1.6000000238418579
-300.71205338690925,6.4000000953674316
-299.56503899768541,5.4000000953674316
-298.41824583496964,4.1999998092651367
-297.27167385456596,7
-296.12532301230749,9.3999996185302734
-294.97919326402553,0.20000000298023224
-293.83328456556956,10.199999809265137
-292.6875968728,2.7999999523162842
-291.54213014158267,6
-290.39688432779803,9
-289.25185938733557,5.5999999046325684
-288.10705527609389,7.1999998092651367
-286.96247194998614,7
-285.81810936493457,1.2000000476837158
-284.67396747687235,8.3999996185302734
-283.53004624174173,7.4000000953674316
-282.38634561549406,1.7999999523162842
-281.24286555409708,13.199999809265137
-280.09960601352395,4.4000000953674316
-278.95656694976424,2.4000000953674316
-277.81374831880566,6.1999998092651367
-276.67115007666143,2.7999999523162842
-275.52877217934838,7
-274.38661458289062,5.1999998092651367
-273.24467724332862,0
-272.10296011671562,9.8000001907348633
-270.961463159103,3.4000000953674316
-269.82018632656946,8.1999998092651367
-268.67912957519366,1
-267.53829286106156,5.5999999046325684
-266.39767614028096,10
-265.25727936895964,10
-264.11710250322722,10.600000381469727
-262.97714549921329,6.1999998092651367
-261.8374083130584,6.8000001907348633
-260.6978909009249,9.1999998092651367
-259.55859321897515,7.5999999046325684
-258.41951522338059,2.7999999523162842
-257.28065687033632,13.600000381469727
-256.14201811603016,6.8000001907348633
-255.00359891667358,4.5999999046325684
-253.86539922848715,8.3999996185302734
-252.7274190076987,4.1999998092651367
-251.58965821054153,7.4000000953674316
-250.45211679326894,2
-249.31479471214516,9.6000003814697266
-248.17769192343076,11.600000381469727
-247.04080838342088,0.20000000298023224
-245.90414404839248,0.20000000298023224
-244.76769887465525,4.8000001907348633
-243.63147281852252,4.5999999046325684
-242.49546583631673,6
-241.35967788436938,4.8000001907348633
-240.22410891902837,8.6000003814697266
-239.08875889664705,3.7999999523162842
-237.95362777358059,13.600000381469727
-236.81871550621872,-1.2000000476837158
-235.6840220509439,4.4000000953674316
-234.54954736414584,7.1999998092651367
-233.41529140224156,8
-232.28125412163718,10.399999618530273
-231.14743547876969,-0.20000000298023224
-230.0138354300725,8.6000003814697266
-228.88045393199536,7
-227.74729094100257,10.199999809265137
-226.61434641355845,0.40000000596046448
-225.48162030614367,10.199999809265137
-224.349112575248,9.8000001907348633
-223.21682317737577,3
-222.08475206903313,8.8000001907348633
-220.95289920674804,7.5999999046325684
-219.82126454705212,14.600000381469727
-218.68984804648244,5
-217.5586496615997,8.1999998092651367
-216.427669348961,12.600000381469727
-215.29690706514521,7.4000000953674316
-214.16636276673125,3.4000000953674316
-213.03603641032169,6.4000000953674316
-211.90592795251541,-0.60000002384185791
-210.77603734992772,10.600000381469727
-209.64636455919026,10.399999618530273
-208.51690953693469,5
-207.38767223980722,6.5999999046325684
-206.25865262447223,4.8000001907348633
-205.12985064758868,6.4000000953674316
-204.00126626584097,7.1999998092651367
-202.87289943590986,2.5999999046325684
-201.74475011450158,2.7999999523162842
-200.61681825831874,4
-199.48910382408758,4.1999998092651367
-198.36160676853797,5
-197.23432704840525,9.3999996185302734
-196.10726462043749,7.1999998092651367
-194.98041944140277,10.399999618530273
-193.85379146806918,9.3999996185302734
-192.72738065721751,6.4000000953674316
-191.6011869656395,2.2000000476837158
-190.47521035013779,10.600000381469727
-189.34945076753138,5.4000000953674316
-188.22390817463383,12.399999618530273
-187.09858252828053,8.3999996185302734
-185.97347378531958,5
-184.84858190259911,10.600000381469727
-183.72390683699086,8.6000003814697266
-182.59944854536116,14
-181.47520698460175,4.1999998092651367
-180.35118211159897,12.600000381469727
-179.22737388326641,8.8000001907348633
-178.1037822565213,17.200000762939453
-176.9804071882827,10.800000190734863
-175.85724863548785,16.600000381469727
-174.73430655509037,19.399999618530273
-173.61158090404206,15.600000381469727
-172.48907163931108,16.200000762939453
-171.36677871787106,24.600000381469727
-170.24470209671563,26.399999618530273
-169.12284173284024,28.799999237060547
-168.00119758325309,26.200000762939453
-166.8797696049769,23.399999618530273
-165.75855775503624,19.399999618530273
-164.6375619904702,22.200000762939453
-163.51678226832883,23.200000762939453
-162.39621854567667,22.600000381469727
-161.27587077957287,28.200000762939453
-160.15573892710927,32.400001525878906
-159.03582294536864,33.799999237060547
-157.91612279145556,29
-156.79663842247828,23.399999618530273
-155.67736979555957,23
-154.55831686783313,25.399999618530273
-153.43947959643447,26.399999618530273
-152.32085793852275,31.399999618530273
-151.20245185125532,26.799999237060547
-150.08426129180589,25.399999618530273
-148.96628621735545,32.599998474121094
-147.84852658509953,31.399999618530273
-146.73098235223915,17.799999237060547
-145.61365347598803,33.400001525878906
-144.49653991357081,27.799999237060547
-143.3796416222176,30.600000381469727
-142.26295855917488,28.799999237060547
-141.14649068169638,27.399999618530273
-140.03023794704677,24.799999237060547
-138.91420031250163,22.600000381469727
-137.79837773533836,35.599998474121094
-136.68277017286164,27.799999237060547
-135.56737758237068,32
-134.45219992117563,39.400001525878906
-133.33723714661573,46.599998474121094
-132.22248921601567,55.400001525878906
-131.10795608672197,60.200000762939453
-129.99363771609387,62.599998474121094
-128.87953406149063,75.800003051757813
-127.76564508029878,68.5999984741211
-126.65197072989395,68.4000015258789
-125.53851096768085,63.599998474121094
-124.4252657510624,68
-123.31223503745423,60.400001525878906
-122.19941878428472,59.599998474121094
-121.08681694899133,63.799999237060547
-119.97442948901517,69.4000015258789
-118.8622563618228,63
-117.75029752487717,65.800003051757813
-116.63855293565393,78.5999984741211
-115.52702255164331,85.5999984741211
-114.41570633034462,78
-113.30460422925898,93.5999984741211
-112.19371620590573,98.4000015258789
-111.08304221782055,110.59999847412109
-109.97258222253549,120
-108.86233617759535,118
-107.75230404056492,123.19999694824219
-106.64248576901082,137.39999389648438
-105.53288132051239,137.19999694824219
-104.42349065265807,148.39999389648438
-103.31431372304178,151.60000610351563
-102.20535048927377,163
-101.09660090898069,176.39999389648438
-99.988064939780088,187.19999694824219
-98.879742539320432,222.60000610351563
-97.771633665246554,229.80000305175781
-96.6637382752142,245
-95.556056326899125,271.39999389648438
-94.448587777975263,279
-93.34133258613474,310
-92.234290709076959,367.39999389648438
-91.1274621045086,430
-90.020846730150879,496.20001220703125
-88.914444543732316,531
-87.808255502995962,541
-86.7022795656867,486.79998779296875
-85.596516689563941,459.79998779296875
-84.490966832401682,445
-83.385629951977535,452.39999389648438
-82.280506006080032,470.60000610351563
-81.175594952508618,480.39999389648438
-80.070896749077292,493.39999389648438
-78.966411353598232,487.60000610351563
-77.862138723905446,488
-76.7580788178384,498.79998779296875
-75.654231593249278,542.5999755859375
-74.550597007988472,593.5999755859375
-73.447175019935457,698.20001220703125
-72.3439655869679,762.4000244140625
-71.240968666974368,778.20001220703125
-70.138184217854359,754.5999755859375
-69.035612197516457,732.4000244140625
-67.933252563881979,763.20001220703125
-66.831105274881338,838.4000244140625
-65.7291702884504,939
-64.62744756254142,951.5999755859375
-63.525937055112081,922.5999755859375
-62.424638724134638,863.79998779296875
-61.323552527588618,930.79998779296875
-60.222678423459,1061.5999755859375
-59.122016369747143,1230.800048828125
-58.02156632446713,1362.5999755859375
-56.92132824563123,1302.199951171875
-55.821302091271718,1198.4000244140625
-54.721487819426329,1041.5999755859375
-53.621885388145529,914.4000244140625
-52.522494755494336,827.79998779296875
-51.423315879526854,783
-50.324348718333567,968.4000244140625
-49.225593230001323,1484.800048828125
-48.12704937262788,2194.60009765625
-47.028717104320094,2737.60009765625
-45.930596383199372,2846.39990234375
-44.832687167392578,2505.800048828125
-43.734989415037489,2382
-42.637503084284617,2582.60009765625
-41.540228133289929,3117.39990234375
-40.443164520223945,3687.199951171875
-39.346312203260823,3809
-38.249671140592909,3568.800048828125
-37.153241290412552,3329.199951171875
-36.057022610932108,3524.199951171875
-34.961015060369391,4443.7998046875
-33.865218596949489,5358
-32.769633178906588,5860.39990234375
-31.6742587644967,6238.39990234375
-30.579095311970377,6564.2001953125
-29.484142779594549,7159.2001953125
-28.389401125643417,7209.2001953125
-27.29487030841301,6603.7998046875
-26.200550286193902,5943.2001953125
-25.106441017293037,5178.60009765625
-24.012542460020995,4387.2001953125
-22.918854572712007,3828.199951171875
-21.82537731370212,3468.60009765625
-20.7321106413292,3052.60009765625
-19.639054513960218,2598.39990234375
-18.546208889949412,2252.199951171875
-17.453573727678304,2047.199951171875
-16.361148985530235,1897.5999755859375
-15.268934621899461,1810.199951171875
-14.176930595191152,1720.199951171875
-13.085136863823209,1664.5999755859375
-11.993553386213534,1596.800048828125
-10.902180120801859,1547.199951171875
-9.8110170260297309,1500.4000244140625
-8.720064060353252,1474.4000244140625
-7.62932118223398,1446.5999755859375
-6.5387883501425677,1251.199951171875
-5.448465522567858,835.5999755859375
-4.3583526579986938,381.79998779296875
-3.2684497149384697,87
-2.1787566519033135,56.400001525878906
-1.0892734274111717,64
0,114.40000152587891
1.0890636717958841,303.79998779296875
2.1779176294185163,753.5999755859375
3.266561914309932,1180.199951171875
4.354996567899434,1416.199951171875
5.443221631601773,1496.800048828125
6.5312371468298807,1580.800048828125
7.6190431549803179,1650
8.7066396974460076,1754.5999755859375
9.7940268156035017,1805.199951171875
10.881204550825714,1929.4000244140625
11.968172944472826,2004.4000244140625
13.054932037890467,2138.39990234375
14.141481872427903,2297
15.227822489416212,2539.60009765625
16.313953930162825,2887.800048828125
17.399876235997,3430
18.485589448209794,3956.39990234375
19.571093608095907,4541.60009765625
20.656388756942761,5115.39990234375
21.74147493601231,6011.7998046875
22.826352186579243,7071.2001953125
23.911020549890964,8125.2001953125
24.995480067191238,9007
26.079730779716556,9438.2001953125
27.163772728685217,9143.7998046875
28.247605955324616,8428.2001953125
29.331230500825768,8090.7998046875
30.414646406390602,7564.2001953125
31.49785371319922,6857.7998046875
32.58085246243354,5387.7998046875
33.663642695257295,4665.2001953125
34.746224452830575,4803.39990234375
35.828597776289826,5247.2001953125
36.910762706780588,5492.39990234375
37.992719285430212,4981
39.074467553356953,4139.7998046875
40.156007551660878,3690.199951171875
41.237339321447507,3453.199951171875
42.318462903804175,3987
43.39937833980548,4351
44.48008567053148,3960.60009765625
45.560584937029489,3066.199951171875
46.6408761803541,1977.199951171875
47.720959441552623,1346.5999755859375
48.80083476164873,1260.199951171875
49.880502181658812,1341.4000244140625
50.9599617426029,1543.800048828125
52.039213485481014,1799.800048828125
53.118257451287718,1989.199951171875
54.197093680997568,2199.39990234375
55.275722215592396,2236.199951171875
56.354143096026746,2104.39990234375
57.432356363258805,1795.199951171875
58.510362058235842,1558.800048828125
59.588160221886938,1535.800048828125
60.665750895142992,1644.800048828125
61.743134118913076,1695.800048828125
62.820309934106263,1667
63.89727838161707,1537.199951171875
64.974039502334563,1393.199951171875
66.050593337131431,1344.4000244140625
67.12693992687673,1389.4000244140625
68.203079312430418,1463.800048828125
69.2790115346379,1463.800048828125
70.354736634337314,1348
71.43025465235587,1199.199951171875
72.505565629522607,1075.4000244140625
73.580669606635638,1026.5999755859375
74.655566624502171,983
75.730256723907587,1004
76.804739945639085,981.5999755859375
77.879016330462036,995.20001220703125
78.953085919145451,974
80.026948752434691,944
81.10060487107512,972.20001220703125
82.174054315803,952.79998779296875
83.247297127336424,1010.2000122070313
84.320333346397092,1103.5999755859375
85.39316301368126,1207.199951171875
86.465786169887,1159.199951171875
87.538202855701456,1041.5999755859375
88.610413111804519,867.4000244140625
89.682416978852416,772
90.754214497510475,701.5999755859375
91.825805708424014,648.4000244140625
92.897190652229256,613.79998779296875
93.968369369558786,575.20001220703125
95.039341901027,548
96.110108287242838,515
97.180668568809779,461
98.251022786316753,426.79998779296875
99.321170980345414,396.60000610351563
100.39111319146468,378
101.46084946023984,348
102.53037982722162,337.20001220703125
103.59970433295166,329.79998779296875
104.66882301796431,318
105.73773592278485,306.79998779296875
106.8064430879258,298.60000610351563
107.87494455389424,297.79998779296875
108.94324036118269,265
110.01133055028004,250.80000305175781
111.07921516166243,233
112.1468942357933,216.80000305175781
113.21436781313787,206
114.28163593413956,204.39999389648438
115.3486986392345,189.60000610351563
116.41555596884973,185.60000610351563
117.48220796341775,186.60000610351563
118.54865466334195,172
119.61489610901845,186.19999694824219
120.68093234084154,173.39999389648438
121.74676339919642,175
122.81238932445376,186.39999389648438
123.87781015697874,206.60000610351563
124.94302593711836,208.60000610351563
126.00803670522509,221.60000610351563
127.07284250162593,200.60000610351563
128.13744336665695,183.19999694824219
129.20183934062334,166.39999389648438
130.26603046383752,142.19999694824219
131.33001677659377,128.80000305175781
132.3937983191845,124.19999694824219
133.4573751318876,110
134.52074725496641,93
135.58391472868425,93.800003051757813
136.6468775932899,86.199996948242188
137.70963588902487,93.4000015258789
138.77218965612155,85.199996948242188
139.83453893480146,89.5999984741211
140.89668376527698,92.199996948242188
141.95862418775323,82.199996948242188
143.02036024241897,84.4000015258789
144.0818919694666,90.4000015258789
145.14321940906302,92.199996948242188
146.20434260137881,103.40000152587891
147.26526158656816,94.4000015258789
148.32597640478161,92.800003051757813
149.38648709615154,83.5999984741211
150.4467937008103,84
151.50689625887571,79
152.5667948104583,85.199996948242188
153.62648939565406,101.80000305175781
154.68598005455897,115.40000152587891
155.74526682725445,118.59999847412109
156.8043497538074,124.59999847412109
157.86322887428469,116.40000152587891
158.9219042287441,97.800003051757813
159.98037585721977,75.5999984741211
161.03864379975494,87.199996948242188
162.096708096371,91.800003051757813
163.15456878708392,92.199996948242188
164.21222591190417,109
165.2696795108277,113
166.32692962384135,119.59999847412109
167.38397629092287,104.40000152587891
168.4408195520482,114
169.4974594471696,93
170.55389601624302,76
171.61012929921162,66.199996948242188
172.66615933600406,53.599998474121094
173.7219861665435,48.200000762939453
174.7776098307495,50
175.83303036851612,37.599998474121094
176.88824781974836,37.799999237060547
177.94326222432755,38
178.99807362213323,33.400001525878906
180.05268205302673,35.799999237060547
181.10708755687847,31.600000381469727
182.16129017352432,33.599998474121094
183.21528994280743,25.200000762939453
184.26908690456366,26.600000381469727
185.32268109860706,35
186.37607256475167,25.600000381469727
187.42926134280606,26.799999237060547
188.482247472557,34
189.53503099378759,32.799999237060547
190.58761194627914,27
191.63999036979294,27.200000762939453
192.692166304083,34.799999237060547
193.7441397888997,27.200000762939453
194.79591086397886,32.799999237060547
195.8474795690563,38.200000762939453
196.89884594384057,29.600000381469727
197.95001002804929,30.799999237060547
199.00097186138009,40.599998474121094
200.05173148352878,31.600000381469727
201.10228893417116,24.200000762939453
202.15264425298847,32.200000762939453
203.2027974796365,26.799999237060547
204.25274865377651,23.799999237060547
205.30249781504972,34.400001525878906
206.35204500309737,29.399999618530273
207.4013902575407,27.799999237060547
208.45053361800274,29.799999237060547
209.49947512409562,29.600000381469727
210.54821481540785,23.399999618530273
211.59675273154062,29.600000381469727
212.64508891206788,35.799999237060547
213.69322339656719,29.200000762939453
214.74115622459976,33.200000762939453
215.78888743571224,35.799999237060547
216.83641706946219,40.799999237060547
217.88374516537988,46.400001525878906
218.93087176298468,40
219.97779690180323,47.200000762939453
221.02452062133852,39.200000762939453
222.0710429610881,42.400001525878906
223.11736396054403,31.200000762939453
224.16348365918566,33.200000762939453
225.2094020964887,30.200000762939453
226.25511931190886,29.399999618530273
227.3006353449,20.600000381469727
228.34595023491056,21.399999618530273
229.39106402137622,16.799999237060547
230.43597674371449,21
231.48068844134468,24.399999618530273
232.52519915367702,11.399999618530273
233.569508920109,26
234.61361778002538,19.200000762939453
235.65752577281455,25.799999237060547
236.70123293784127,27
237.74473931446664,20
238.78804494204451,34
239.83114985991779,22
240.87405410742394,29.600000381469727
241.91675772388407,21.399999618530273
242.95926074861745,19.600000381469727
244.00156322093062,14.800000190734863
245.04366518011921,20
246.08556666547338,19.600000381469727
247.12726771627604,22
248.16876837179188,17.399999618530273
249.21006867128381,22.399999618530273
250.25116865401105,8.6000003814697266
251.29206835920559,10.199999809265137
252.33276782611392,7.1999998092651367
253.37326709395347,12.600000381469727
254.41356620194165,10.399999618530273
255.45366518928495,10
256.49356409518441,10.399999618530273
257.53326295883016,13.399999618530273
258.57276181939596,14.600000381469727
259.61206071605739,12.600000381469727
260.65115968797545,11
261.69005877429845,16.399999618530273
262.72875801417831,17.600000381469727
263.76725744674513,10.199999809265137
264.80555711111992,13.800000190734863
265.84365704643096,13.800000190734863
266.88155729177379,16.200000762939453
267.91925788625122,18.399999618530273
268.95675886895515,10
269.99406027896839,18
271.03116215535192,8.1999998092651367
272.06806453717945,7.1999998092651367
273.10476746349923,12.600000381469727
274.14127097334858,9.8000001907348633
275.17757510577758,14
276.21367989980354,14.800000190734863
277.24958539444378,8.3999996185302734
278.28529162870836,9.3999996185302734
279.32079864159641,10.399999618530273
280.35610647209614,13.800000190734863
281.39121515919214,10.199999809265137
282.42612474185262,15.600000381469727
283.46083525904578,21
284.49534674972347,12.800000190734863
285.52965925283388,15.399999618530273
286.56377280730703,17
287.59768745207475,5.4000000953674316
288.63140322605432,11.399999618530273
289.66492016815391,8.6000003814697266
290.6982383172799,13
291.73135771231318,13.600000381469727
292.76427839214739,6.4000000953674316
293.79700039564887,5.1999998092651367
294.82952376168032,10.800000190734863
295.86184852910264,10.600000381469727
296.89397473676581,10
297.92590242349979,12.800000190734863
298.95763162813637,6.8000001907348633
299.9891623894946,13.199999809265137
301.02049474638625,13.199999809265137
302.05162873761219,12
303.082564401966,2.4000000953674316
304.1133017782322,2.7999999523162842
305.14384090518251,8
306.1741818215869,7.8000001907348633
307.20432456620438,7.4000000953674316
308.23426917777579,13
309.26401569504924,7.5999999046325684
310.29356415674738,16.200000762939453
311.32291460160013,15.800000190734863
312.35206706831377,12
313.38102159559276,14.199999809265137
314.40977822213063,10.199999809265137
315.43833698661547,17.200000762939453
316.46669792772627,12.800000190734863
317.49486108412748,16.399999618530273
318.52282649447989,21.799999237060547
319.55059419743338,27.799999237060547
320.5781642316324,35.200000762939453
321.60553663570317,41.799999237060547
322.63271144827559,51.799999237060547
323.65968870795768,78.4000015258789
324.68646845335934,88
325.71305072307769,96.199996948242188
326.73943555570077,91.800003051757813
327.76562298980934,94
328.79161306396782,84.199996948242188
329.81740581674421,74
330.84300128668838,48
331.86839951234651,33.400001525878906
332.89360053224482,14.800000190734863
333.9186043849204,16.200000762939453
334.9434111088849,8.8000001907348633
335.96802074264451,8.1999998092651367
336.9924333247036,8.6000003814697266
338.016648893552,7.1999998092651367
339.04066748766672,9.8000001907348633
340.06448914552857,6.5999999046325684
341.08811390559458,0.800000011920929
342.11154180632184,7
343.13477288616014,8.1999998092651367
344.15780718354108,-0.20000000298023224
345.1806447368981,6.1999998092651367
346.20328558465189,7.4000000953674316
347.22572976520678,2.4000000953674316
348.24797731697436,2
349.2700282783444,2.7999999523162842
350.29188268769758,8.1999998092651367
351.3135405834164,3.2000000476837158
352.3350020038597,3.5999999046325684
353.35626698739179,-1.3999999761581421
354.37733557236061,8.6000003814697266
355.39820779711044,3.4000000953674316
356.41888369996741,4.8000001907348633
357.43936331925579,8
358.4596466932926,2.2000000476837158
359.47973386038029,6.5999999046325684
360.4996248588177,4.8000001907348633
361.51931972688908,1.3999999761581421
362.53881850287689,8.3999996185302734
363.55812122505267,2.2000000476837158
364.57722793167341,6
365.59613866099608,2.7999999523162842
366.61485345126675,-0.20000000298023224
367.63337234071332,2
368.65169536756548,6.4000000953674316
369.66982257004383,4
370.68775398635444,-1
371.70548965469789,-0.40000000596046448
372.7230296132675,5.8000001907348633
373.74037390024205,2
374.75752255379666,2
375.7744756120992,5.5999999046325684
376.79123311330659,3.4000000953674316
377.80779509556305,2.2000000476837158
378.82416159700733,2.2000000476837158
379.84033265577273,7.1999998092651367
380.856308309978,5.8000001907348633
381.87208859774,11.199999809265137
382.88767355716118,6
383.90306322633296,1.7999999523162842
384.918257643345,0.60000002384185791
385.933256846276,10
386.94806087319375,3
387.96266976215884,5.8000001907348633
388.97708355122268,-0.60000002384185791
389.99130227842943,0.40000000596046448
391.005325981816,2.4000000953674316
392.01915469940104,1
393.03278846921057,0.60000002384185791
394.04622732924145,6.1999998092651367
395.05947131750145,5.4000000953674316
396.072520471982,6.5999999046325684
397.08537483066175,6.1999998092651367
398.09803443151395,5.8000001907348633
399.11049931250454,2.4000000953674316
400.12276951158856,5.1999998092651367
401.13484506671739,6.4000000953674316
402.14672601582424,3.5999999046325684
403.15841239684596,6.5999999046325684
404.16990424769574,2.5999999046325684
405.18120160629041,6.5999999046325684
406.19230451053772,-0.800000011920929
407.20321299832722,5.1999998092651367
408.21392710754844,-0.20000000298023224
409.22444687608004,15.399999618530273
410.2347723417879,9
411.24490354253794,5.4000000953674316
412.25484051617786,3.4000000953674316
413.26458330055357,8
414.27413193350003,4.5999999046325684
415.28348645284314,5.1999998092651367
416.29264689639967,9
417.30161330197734,3.7999999523162842
418.310385707382,-3
419.31896415039773,4.4000000953674316
420.327348668814,3.4000000953674316
421.33553930040034,-0.60000002384185791
422.34353608292622,1
423.35133905414659,0.40000000596046448
424.35894825181094,8.1999998092651367
425.366363713656,2
426.37358547742224,2.5999999046325684
427.38061358082268,7.5999999046325684
428.38744806157592,3.7999999523162842
429.39408895738779,2.5999999046325684
430.40053630595321,4.5999999046325684
431.40679014495618,9.1999998092651367
432.41285051209161,4.8000001907348633
433.41871744501259,15.600000381469727
434.42439098139221,3
435.42987115888172,4.5999999046325684
436.43515801512694,3
437.4402515877664,-1
438.44515191442224,4.4000000953674316
439.44985903272209,9.1999998092651367
440.45437298026809,6.5999999046325684
441.45869379467149,5.5999999046325684
442.4628215135217,9.1999998092651367
443.46675617440451,2.5999999046325684
444.47049781489659,3.7999999523162842
445.47404647256735,0
446.47740218497347,-0.20000000298023224
447.480564989668,7.5999999046325684
448.483534924193,3
449.48631202608703,6.5999999046325684
450.48889633286853,8.1999998092651367
451.49128788205962,7.4000000953674316
452.49348671116604,0.20000000298023224
453.49549285768262,-0.20000000298023224
454.49730635911328,3.5999999046325684
455.49892725292921,4.5999999046325684
456.50035557661067,2.5999999046325684
457.50159136762159,6
458.50263466341676,1
459.503485501451,-3
460.50414391915729,3
461.50460995397043,9
462.5048836433125,7
463.50496502460373,15.399999618530273
464.50485413524257,8
465.50455101262742,10
466.50405569415489,13.800000190734863
467.50336821719429,9.1999998092651367
468.50248861912587,23.200000762939453
469.50141693731166,20.200000762939453
470.50015320910279,21.600000381469727
471.49869747185039,34
472.49704976288922,23.799999237060547
473.49521011955221,21.200000762939453
474.49317857915776,15.800000190734863
475.49095517901515,17.399999618530273
476.48853995643731,8.1999998092651367
477.48593294871353,15
478.48313419313126,7.1999998092651367
479.48014372697253,5.4000000953674316
480.47696158750477,7.8000001907348633
481.47358781198818,-1.3999999761581421
482.47002243768111,14.399999618530273
483.46626550182373,0.800000011920929
484.46231704165621,2.4000000953674316
485.45817709440053,0
486.45384569728049,6.4000000953674316
487.44932288750715,6.5999999046325684
488.44460870228249,7.1999998092651367
489.43970317880303,-3.4000000953674316
490.4346063542489,9
491.42931826580025,2.5999999046325684
492.4238389506263,6.8000001907348633
493.41816844588539,-0.60000002384185791
494.41230678873217,-1.7999999523162842
495.40625401630859,4.4000000953674316
496.40001016574752,10.399999618530273
497.39357527418179,11.800000190734863
498.3869493787206,8.6000003814697266
499.3801325164859,6.5999999046325684
500.37312472456688,-3
501.36592604006182,-2.2000000476837158
502.35853650005447,-5
503.35095614162128,4.4000000953674316
504.34318500183144,5.1999998092651367
505.33522311774323,-3.7999999523162842
506.32707052640581,0.40000000596046448
507.3187272648629,-0.40000000596046448
508.31019337014914,0.800000011920929
509.30146887928822,0.60000002384185791
510.29255382930023,-0.800000011920929
511.28344825719068,3.2000000476837158
512.27415219996328,-3.5999999046325684
513.26466569460717,3.7999999523162842
514.25498877810969,12
515.24512148744543,-5.5999999046325684
516.23506385957626,6.8000001907348633
517.22481593147131,1
518.214377740067,3.7999999523162842
519.20374932231425,3
520.19293071514585,1.6000000238418579
521.18192195548909,4.5999999046325684
522.17072308025308,-0.20000000298023224
523.15933412635422,6
524.14775513068525,-2.4000000953674316
525.13598613014619,2.4000000953674316
526.12402716160977,-3
527.11187826196146,3.5999999046325684
528.09953946806127,5.4000000953674316
529.08701081677282,5.5999999046325684
530.07429234493793,7.5999999046325684
531.06138408940751,5.5999999046325684
532.048286087007,4.8000001907348633
533.03499837456729,7.1999998092651367
534.0215209889011,8.6000003814697266
535.00785396682113,12
535.99399734512008,9.8000001907348633
536.97995116059792,6.4000000953674316
537.965715450031,0
538.95129025019924,4
539.93667559786809,-0.800000011920929
540.921871529792,4.5999999046325684
541.90687808272924,1
542.89169529341052,4.4000000953674316
543.87632319857767,3.2000000476837158
544.86076183495788,6
545.84501123925838,3.2000000476837158
546.82907144819546,-0.40000000596046448
547.8129424984636,9.8000001907348633
548.7966244267609,0.60000002384185791
549.78011726976547,1.6000000238418579
550.76342106415723,1
551.74653584660155,6.1999998092651367
552.7294616537547,4.1999998092651367
553.71219852227114,-3
554.69474648879077,3
555.677105589948,7.5999999046325684
556.65927586237194,2.2000000476837158
557.64125734267327,0.40000000596046448
558.62305006746465,4.4000000953674316
559.604654073346,2.5999999046325684
560.58606939691163,0.20000000298023224
561.56729607475063,3.4000000953674316
562.54833414342647,3.5999999046325684
563.5291836395154,2.2000000476837158
564.50984459957726,-5.1999998092651367
565.490317060161,-0.800000011920929
566.4706010578102,3.5999999046325684
567.450696629061,8.8000001907348633
568.43060381044052,6.5999999046325684
569.41032263846137,9.1999998092651367
570.38985314963975,16.399999618530273
571.36919538047732,31.200000762939453
572.348349367463,21.399999618530273
573.32731514708939,15.199999809265137
574.30609275582538,7.1999998092651367
575.28468223014534,6.4000000953674316
576.26308360651274,3.2000000476837158
577.24129692136921,-0.60000002384185791
578.219322211171,5.5999999046325684
579.197159512345,6
580.17480886132762,2.4000000953674316
581.15227029453308,7.1999998092651367
582.12954384837394,4
583.10662955925181,-1
584.08352746356286,3.2000000476837158
585.06023759769778,1.2000000476837158
586.03675999802908,-2.7999999523162842
587.01309470092929,4.8000001907348633
587.98924174276181,8.6000003814697266
588.965201159881,2.4000000953674316
589.940972988632,-6.4000000953674316
590.916557265351,2
591.89195402637051,4.5999999046325684
592.86716330800846,4.5999999046325684
593.84218514657914,7.8000001907348633
594.81701957839141,-0.20000000298023224
595.79166663973774,1.7999999523162842
596.76612636690516,6.8000001907348633
597.74039879617885,8.1999998092651367
598.71448396382948,1.2000000476837158
599.68838190611859,5.4000000953674316
600.66209265930229,7.4000000953674316
601.63561625963666,7.8000001907348633
602.60895274334871,-4
603.58210214668,3.5999999046325684
604.55506450584653,1.7999999523162842
605.52783985706992,6.8000001907348633
606.50042823655167,2
607.472829680497,7.1999998092651367
608.44504422508908,7.4000000953674316
609.41707190651687,0
610.38891276095092,6.4000000953674316
611.36056682456,7
612.332034133502,2.4000000953674316
613.3033147239239,1.2000000476837158
614.2744086319708,9.6000003814697266
615.24531589377693,4.1999998092651367
616.216036545462,8.6000003814697266
617.18657062315287,7
618.15691816295475,7.1999998092651367
619.12707920096727,3.7999999523162842
620.09705377328282,2.2000000476837158
621.06684191599379,0.800000011920929
622.03644366517074,-3.2000000476837158
623.0058590568824,8.8000001907348633
623.97508812719207,3.5999999046325684
624.94413091215029,0.800000011920929
625.912987447804,-2
626.88165777019094,3.7999999523162842
627.85014191533446,1.2000000476837158
628.81843991925962,1
629.78655181797694,7.8000001907348633
630.75447764748969,5.8000001907348633
631.72221744379385,4.1999998092651367
632.68977124288176,6.1999998092651367
633.65713908072576,2.4000000953674316
634.62432099330545,6.5999999046325684
635.59131701657861,3.2000000476837158
636.55812718650486,1.2000000476837158
637.52475153902742,7.1999998092651367
638.49119011009134,-1.2000000476837158
639.45744293562529,2.5999999046325684
640.42351005155251,8.8000001907348633
641.38939149379257,1.3999999761581421
642.355087298245,3.2000000476837158
643.32059750081135,5.4000000953674316
644.28592213738557,4.1999998092651367
645.25106124385456,6
646.216014856087,-5
647.18078300994785,2.5999999046325684
648.1453657413058,0.800000011920929
649.10976308600038,0.20000000298023224
650.07397507988208,7.5999999046325684
651.03800175878678,-0.60000002384185791
652.00184315853767,1.7999999523162842
652.96549931495247,3.2000000476837158
653.92897026384526,-2.2000000476837158
654.89225604101739,-1.7999999523162842
655.85535668226476,5.1999998092651367
656.81827222337415,5
657.78100270012328,0.40000000596046448
658.74354814828257,8.1999998092651367
659.70590860361335,1.7999999523162842
660.66808410187514,1.3999999761581421
661.63007467881289,6.4000000953674316
662.59188037016247,7
663.55350121165611,6.1999998092651367
664.514937239017,-2.4000000953674316
665.47618848796083,8
666.4372549941927,2.2000000476837158
667.39813679341023,-1.7999999523162842
668.35883392130745,7.1999998092651367
669.31934641356565,-0.40000000596046448
670.27967430585886,1.3999999761581421
671.23981763385382,0.40000000596046448
672.19977643321,7.1999998092651367
673.15955073957775,12.399999618530273
674.119140588602,-0.800000011920929
675.07854601591134,-0.800000011920929
676.03776705714154,3.2000000476837158
676.99680374790478,8.8000001907348633
677.95565612381506,-0.40000000596046448
678.91432422047183,-0.800000011920929
679.87280807347634,3
680.83110771841166,6
681.78922319085541,5.4000000953674316
682.74715452638156,-1
683.70490176055318,-1.3999999761581421
684.66246492892424,5.1999998092651367
