-777.74687133807856,72.800003051757813
-776.50770429765,85.800003051757813
-775.26877705141487,81.800003051757813
-774.03008955063888,85.199996948242188
-772.79164174658763,91.4000015258789
-771.55343359055223,97.800003051757813
-770.31546503381287,90.4000015258789
-769.07773602767884,89
-767.8402465234667,100.59999847412109
-766.60299647250758,92.4000015258789
-765.36598582614351,90.800003051757813
-764.12921453572744,88.800003051757813
-762.89268255262323,91
-761.65638982821292,89.800003051757813
-760.42033631388222,91.4000015258789
-759.184521961035,93.4000015258789
-757.948946721086,94.800003051757813
-756.71361054546833,93
-755.47851338560758,96.199996948242188
-754.24365519296589,89.800003051757813
-753.009035918998,95
-751.77465551518071,95
-750.5405139330087,97.4000015258789
-749.30661112396592,97.800003051757813
-748.0729470395836,101.19999694824219
-746.8395216313711,88
-745.60633485086328,95.5999984741211
-744.3733866496168,91.800003051757813
-743.14067697918108,86.199996948242188
-741.90820579113461,89.5999984741211
-740.67597303705952,97.199996948242188
-739.44397866855252,91.5999984741211
-738.21222263721756,98
-736.98070489468046,98.4000015258789
-735.749425392567,94
-734.51838408252479,87.199996948242188
-733.28758091621239,88.5999984741211
-732.057015845292,86.4000015258789
-730.82668882144753,92.800003051757813
-729.59659979637036,88.800003051757813
-728.366748721759,93.800003051757813
-727.13713554934475,90
-725.90776023084072,101.19999694824219
-724.67862271799277,91
-723.449722962554,93.4000015258789
-722.22106091628848,86
-720.99263653096386,89.199996948242188
-719.76444975838785,87.800003051757813
-718.53650055034268,93.5999984741211
-717.308788858647,84
-716.08131463512655,86.4000015258789
-714.85407783161827,82
-713.62707839996983,89
-712.40031629203258,95.5999984741211
-711.17379145969062,88.199996948242188
-709.94750385482075,89
-708.72145342932527,86.800003051757813
-707.49564013510644,87
-706.27006392408839,89.5999984741211
-705.04472474819522,91
-703.81962255938379,83.199996948242188
-702.59475730959639,88.199996948242188
-701.3701289508117,91.800003051757813
-700.14573743500478,87.4000015258789
-698.9215827141652,85.199996948242188
-697.69766474030075,87.800003051757813
-696.47398346541922,87.4000015258789
-695.25053884156114,87.4000015258789
-694.02733082075611,88
-692.80435935505557,82.5999984741211
-691.58162439652915,89.4000015258789
-690.35912589724649,83.5999984741211
-689.13686380929175,81.800003051757813
-687.91483808476733,85
-686.69304867578649,90
-685.47149553447343,80.800003051757813
-684.25017861295237,81.199996948242188
-683.02909786337659,82.5999984741211
-681.80825323790668,96.199996948242188
-680.5876446887105,91.5999984741211
-679.3672721679668,79.800003051757813
-678.14713562787256,88.4000015258789
-676.92723502063564,86.4000015258789
-675.70757029846391,81.800003051757813
-674.48814141360162,85.5999984741211
-673.26894831827849,84.4000015258789
-672.04999096475331,86.5999984741211
-670.83126930528488,84.800003051757813
-669.61278329215747,86.199996948242188
-668.39453287765537,82.4000015258789
-667.176518014081,88
-665.95873865374051,83.4000015258789
-664.7411947489727,76.800003051757813
-663.5238862520946,81.800003051757813
-662.30681311546687,79.4000015258789
-661.0899752914429,80.4000015258789
-659.87337273240155,78.199996948242188
-658.6570053907144,88.4000015258789
-657.44087321878942,73.4000015258789
-656.22497616902,78.199996948242188
-655.009314193836,75.800003051757813
-653.79388724565979,83.199996948242188
-652.57869527693947,87.199996948242188
-651.363738240123,79.5999984741211
-650.14901608768014,81.800003051757813
-648.93452877208438,77.4000015258789
-647.720276245831,80.199996948242188
-646.5062584614152,82.5999984741211
-645.29247537135416,82.4000015258789
-644.078926928165,79.5999984741211
-642.86561308439377,80.5999984741211
-641.65253379257956,77
-640.43968900529035,73
-639.22707867508689,76.800003051757813
-638.01470275456631,80.4000015258789
-636.80256119630758,71.800003051757813
-635.590653952926,80.800003051757813
-634.37898097704056,83.5999984741211
-633.16754222128111,78
-631.95633763828118,75
-630.745367180707,84.800003051757813
-629.534630801214,79
-628.32412845248655,78.4000015258789
-627.11386008720547,70.4000015258789
-625.9038256580734,69.800003051757813
-624.69402511780754,80.800003051757813
-623.48445841912508,73.4000015258789
-622.27512551476138,88.4000015258789
-621.0660263574664,73.199996948242188
-619.85716089999733,81.199996948242188
-618.64852909512592,82.4000015258789
-617.44013089563123,85.4000015258789
-616.2319662543141,85.4000015258789
-615.0240351239645,82.199996948242188
-613.81633745741237,77.199996948242188
-612.60887320749134,80.4000015258789
-611.40164232702409,75.4000015258789
-610.194644768877,78.4000015258789
-608.98788048590177,72.5999984741211
-607.781349430983,81.800003051757813
-606.57505155700892,78.4000015258789
-605.36898681687126,79.800003051757813
-604.1631551634764,82
-602.95755654975983,72.4000015258789
-601.75219092864245,79
-600.54705825307065,71
-599.34215847600535,76.4000015258789
-598.13749155041478,78.5999984741211
-596.93305742927441,76.800003051757813
-595.72885606557793,76
-594.52488741232992,80
-593.32115142254224,76.800003051757813
-592.117648049245,73.800003051757813
-590.91437724546449,74.5999984741211
-589.71133896426,76.199996948242188
-588.50853315869062,71.800003051757813
-587.30595978182646,76
-586.10361878675576,73.199996948242188
-584.90151012657043,71.800003051757813
-583.69963375437328,72.800003051757813
-582.49798962329442,80.4000015258789
-581.296577686453,75.199996948242188
-580.09539789699556,77.5999984741211
-578.894450208074,81.4000015258789
-577.69373457285474,86.199996948242188
-576.4932509445116,84.5999984741211
-575.29299927623651,74.4000015258789
-574.09297952122142,74.199996948242188
-572.89319163268192,79.800003051757813
-571.69363556384451,78
-570.49431126793752,73.199996948242188
-569.29521869820383,72
-568.09635780790632,74.4000015258789
-566.89772855030969,69.800003051757813
-565.69933087869686,77.5999984741211
-564.50116474635433,76.199996948242188
-563.30323010658867,75.199996948242188
-562.1055269127155,62.799999237060547
-560.90805511805775,83
-559.710814675951,77.4000015258789
-558.513805539751,68
-557.31702766280978,70.5999984741211
-556.12048099851017,67.800003051757813
-554.92416550022062,63.400001525878906
-553.72808112134589,74.199996948242188
-552.53222781529075,74.800003051757813
-551.33660553547088,72.5999984741211
-550.14121423531651,68
-548.94605386826515,77.199996948242188
-547.75112438777614,70
-546.55642574730518,77
-545.361957900328,69.800003051757813
-544.167720800333,75.5999984741211
-542.97371440082134,67.5999984741211
-541.77993865529243,65.4000015258789
-540.58639351727652,67.800003051757813
-539.39307894030026,63.799999237060547
-538.19999487790665,68.199996948242188
-537.00714128365507,70.199996948242188
-535.81451811110674,69.800003051757813
-534.622125313841,76.4000015258789
-533.42996284544643,64
-532.23803065952234,63.799999237060547
-531.04632870968271,71.199996948242188
-529.85485694955059,66.5999984741211
-528.66361533275631,80
-527.47260381295564,65.199996948242188
-526.28182234379165,71.199996948242188
-525.09127087894194,70.800003051757813
-523.90094937208778,65.199996948242188
-522.71085777691223,73.800003051757813
-521.52099604712748,60.200000762939453
-520.33136413644206,73.4000015258789
-519.14196199858088,72
-517.95278958728341,70.4000015258789
-516.76384685629819,72
-515.57513375937924,69.5999984741211
-514.38665025030423,68.800003051757813
-513.19839628285263,69.4000015258789
-512.01037181081665,70.4000015258789
-510.82257678800124,75.800003051757813
-509.63501116822226,72.800003051757813
-508.44767490530649,62.200000762939453
-507.26056795309523,62.799999237060547
-506.07369026543893,67.5999984741211
-504.88704179619526,63.400001525878906
-503.70062249923831,63
-502.51443232845486,66.5999984741211
-501.32847123773354,58.400001525878906
-500.14273918098661,67.5999984741211
-498.95723611213,66
-497.77196198509228,69.5999984741211
-496.58691675381124,68
-495.40210037224642,70.5999984741211
-494.21751279435375,67.199996948242188
-493.03315397410915,58.400001525878906
-491.84902386549584,62.599998474121094
-490.665122422517,63
-489.48144959917408,60.799999237060547
-488.29800534949027,68.5999984741211
-487.11478962749243,61.599998474121094
-485.93180238722562,54
-484.74904358273852,68
-483.5665131681053,66.5999984741211
-482.38421109738738,61.200000762939453
-481.2021373246771,69.199996948242188
-480.0202918040759,75.199996948242188
-478.83867448969067,74.4000015258789
-477.65728533564106,74.199996948242188
-476.47612429605579,72.800003051757813
-475.2951913250854,79.5999984741211
-474.11448637687681,63.799999237060547
-472.93400940559695,70.800003051757813
-471.75376036542184,63
-470.57373921054023,68.5999984741211
-469.39394589515177,63.400001525878906
-468.21438037346343,59
-467.03504259970032,61.200000762939453
-465.8559325280894,63.200000762939453
-464.67705011287944,58.400001525878906
-463.49839530831923,55.400001525878906
-462.31996806867937,61.599998474121094
-461.14176834823775,54.200000762939453
-459.96379610127588,62.200000762939453
-458.78605128210074,61.200000762939453
-457.60853384501752,66
-456.43124374435138,55.200000762939453
-455.25418093443295,58.799999237060547
-454.07734536960925,55.200000762939453
-452.90073700422909,55.799999237060547
-451.7243557926613,54.799999237060547
-450.54820168928381,58.799999237060547
-449.37227464848911,54.400001525878906
-448.19657462467148,59.599998474121094
-447.02110157224524,51.200000762939453
-445.84585544562833,56.400001525878906
-444.67083619925324,57.599998474121094
-443.49604378757067,55.799999237060547
-442.32147816503129,53
-441.14713928610036,59.400001525878906
-439.97302710525764,56
-438.79914157698659,57.799999237060547
-437.62548265579426,54.599998474121094
-436.45205029618774,51.400001525878906
-435.27884445268865,56
-434.10586507982771,56.799999237060547
-432.93311213215566,56.799999237060547
-431.76058556421776,56.400001525878906
-430.58828533058477,52.200000762939453
-429.41621138583832,62.599998474121094
-428.24436368456008,53.400001525878906
-427.07274218135353,55.200000762939453
-425.90134683082943,47.799999237060547
-424.73017758760216,58.799999237060547
-423.55923440631159,67
-422.38851724159576,50.799999237060547
-421.21802604811455,48.200000762939453
-420.04776078052782,58.599998474121094
-418.87772139351546,53.200000762939453
-417.70790784176643,54.799999237060547
-416.53832007998062,47.799999237060547
-415.36895806286157,53.400001525878906
-414.19982174513279,52.799999237060547
-413.03091108152512,49.200000762939453
-411.86222602678754,49
-410.69376653566542,55.200000762939453
-409.52553256292776,58.599998474121094
-408.35752406334905,57.200000762939453
-407.18974099171828,49.599998474121094
-406.02218330282813,47
-404.85485095149124,47.200000762939453
-403.68774389253122,51.400001525878906
-402.5208620807698,40.799999237060547
-401.35420547105241,56.400001525878906
-400.18777401823172,51
-399.02156767717497,46.799999237060547
-397.85558640275485,50.799999237060547
-396.68983014985315,49
-395.52429887336984,58.200000762939453
-394.35899252820855,46.599998474121094
-393.1939110692947,56.400001525878906
-392.02905445155375,49.799999237060547
-390.8644226299275,55
-389.70001555936324,56.599998474121094
-388.53583319482641,51
-387.37187549128976,49.799999237060547
-386.20814240373875,57
-385.04463388716613,57.599998474121094
-383.8813498965792,41
-382.71829038699252,52.200000762939453
-381.55545531343887,60.400001525878906
-380.392844630951,46.200000762939453
-379.23045829458351,45.400001525878906
-378.06829625939463,42.200000762939453
-376.90635848045895,45.799999237060547
-375.74464491285289,44.799999237060547
-374.58315551167289,55.400001525878906
-373.42189023202263,45.400001525878906
-372.26084902901857,54.200000762939453
-371.10003185778623,55.200000762939453
-369.93943867346024,44.599998474121094
-368.77906943119342,45.400001525878906
-367.61892408613858,48.799999237060547
-366.45900259346672,45.400001525878906
-365.29930490835977,44.400001525878906
-364.13983098601057,45.200000762939453
-362.98058078161557,42.599998474121094
-361.82155425039127,45
-360.66275134756324,50.799999237060547
-359.5041720283607,51.599998474121094
-358.34581624803286,54
-357.18768396183805,37.400001525878906
-356.02977512504185,44.799999237060547
-354.87208969291896,54
-353.71462762076044,52.599998474121094
-352.55738886386462,46.200000762939453
-351.400373377548,49.799999237060547
-350.24358111712354,48.599998474121094
-349.08701203792953,53.200000762939453
-347.93066609530615,46.599998474121094
-346.77454324460632,46
-345.61864344119567,54.200000762939453
-344.46296664044894,43.400001525878906
-343.30751279775541,59.799999237060547
-342.15228186851164,53.599998474121094
-340.99727380812146,52.200000762939453
-339.84248857200873,60
-338.68792611559365,56.799999237060547
-337.53358639432554,63.400001525878906
-336.37946936365006,81.800003051757813
-335.2255749790329,95.800003051757813
-334.07190319594883,114.59999847412109
-332.918453969869,139.80000305175781
-331.76522725630093,161
-330.61222301074304,171.39999389648438
-329.45944118871012,171.80000305175781
-328.30688174573515,158.60000610351563
-327.15454463734568,144.60000610351563
-326.00242981909287,126.19999694824219
-324.85053724653517,115.19999694824219
-323.69886687524559,103
-322.54741866080076,84.800003051757813
-321.39619255879552,73.199996948242188
-320.24518852482652,68.800003051757813
-319.09440651450677,64
-317.9438464834584,62.599998474121094
-316.79350838731807,58.200000762939453
-315.64339218173154,57.400001525878906
-314.49349782234822,64.4000015258789
-313.34382526483751,51.400001525878906
-312.19437446487791,46.200000762939453
-311.04514537814794,64.4000015258789
-309.89613796035519,53.599998474121094
-308.74735216720546,56.400001525878906
-307.59878795441546,48.400001525878906
-306.45044527772006,67.199996948242188
-305.30232409285418,55.599998474121094
-304.1544243555727,46.400001525878906
-303.00674602163963,61.599998474121094
-301.85928904682078,54.799999237060547
-300.71205338690925,51.200000762939453
-299.56503899768541,52.599998474121094
-298.41824583496964,63.599998474121094
-297.27167385456596,54.200000762939453
-296.12532301230749,56.400001525878906
-294.97919326402553,59.400001525878906
-293.83328456556956,67.800003051757813
-292.6875968728,55.400001525878906
-291.54213014158267,56.799999237060547
-290.39688432779803,49.400001525878906
-289.25185938733557,53.599998474121094
-288.10705527609389,61.599998474121094
-286.96247194998614,65.199996948242188
-285.81810936493457,68.5999984741211
-284.67396747687235,60
-283.53004624174173,62
-282.38634561549406,62.799999237060547
-281.24286555409708,62.799999237060547
-280.09960601352395,59.599998474121094
-278.95656694976424,65.4000015258789
-277.81374831880566,70.5999984741211
-276.67115007666143,65
-275.52877217934838,74.199996948242188
-274.38661458289062,67.5999984741211
-273.24467724332862,60.200000762939453
-272.10296011671562,71.800003051757813
-270.961463159103,67.800003051757813
-269.82018632656946,65.800003051757813
-268.67912957519366,66.199996948242188
-267.53829286106156,69.5999984741211
-266.39767614028096,61.799999237060547
-265.25727936895964,72.5999984741211
-264.11710250322722,75.4000015258789
-262.97714549921329,72.4000015258789
-261.8374083130584,70.5999984741211
-260.6978909009249,71.4000015258789
-259.55859321897515,77.5999984741211
-258.41951522338059,71
-257.28065687033632,72.199996948242188
-256.14201811603016,80.5999984741211
-255.00359891667358,73.5999984741211
-253.86539922848715,77.199996948242188
-252.7274190076987,83.4000015258789
-251.58965821054153,71
-250.45211679326894,75.199996948242188
-249.31479471214516,92.4000015258789
-248.17769192343076,80.5999984741211
-247.04080838342088,93.4000015258789
-245.90414404839248,85.199996948242188
-244.76769887465525,96.4000015258789
-243.63147281852252,86.5999984741211
-242.49546583631673,96
-241.35967788436938,94.800003051757813
-240.22410891902837,105.19999694824219
-239.08875889664705,98.800003051757813
-237.95362777358059,105.40000152587891
-236.81871550621872,112.59999847412109
-235.6840220509439,109.80000305175781
-234.54954736414584,105.80000305175781
-233.41529140224156,106.80000305175781
-232.28125412163718,111
-231.14743547876969,117.40000152587891
-230.0138354300725,114
-228.88045393199536,121.19999694824219
-227.74729094100257,128.39999389648438
-226.61434641355845,136.19999694824219
-225.48162030614367,140.60000610351563
-224.349112575248,144
-223.21682317737577,151.80000305175781
-222.08475206903313,161
-220.95289920674804,162.19999694824219
-219.82126454705212,162.19999694824219
-218.68984804648244,152.60000610351563
-217.5586496615997,147
-216.427669348961,158
-215.29690706514521,162
-214.16636276673125,157.60000610351563
-213.03603641032169,158.60000610351563
-211.90592795251541,154.80000305175781
-210.77603734992772,167.39999389648438
-209.64636455919026,158.19999694824219
-208.51690953693469,167.39999389648438
-207.38767223980722,165.80000305175781
-206.25865262447223,177
-205.12985064758868,178.80000305175781
-204.00126626584097,185.39999389648438
-202.87289943590986,173
-201.74475011450158,181.39999389648438
-200.61681825831874,188.39999389648438
-199.48910382408758,182
-198.36160676853797,181.60000610351563
-197.23432704840525,188.80000305175781
-196.10726462043749,183.60000610351563
-194.98041944140277,186.39999389648438
-193.85379146806918,194.80000305175781
-192.72738065721751,186.80000305175781
-191.6011869656395,195.60000610351563
-190.47521035013779,191.80000305175781
-189.34945076753138,196.60000610351563
-188.22390817463383,197.39999389648438
-187.09858252828053,192.19999694824219
-185.97347378531958,198.60000610351563
-184.84858190259911,205.60000610351563
-183.72390683699086,204
-182.59944854536116,210.39999389648438
-181.47520698460175,206.60000610351563
-180.35118211159897,215.39999389648438
-179.22737388326641,244.19999694824219
-178.1037822565213,252.19999694824219
-176.9804071882827,259.60000610351563
-175.85724863548785,270.60000610351563
-174.73430655509037,305.79998779296875
-173.61158090404206,318.20001220703125
-172.48907163931108,357.60000610351563
-171.36677871787106,385
-170.24470209671563,414.79998779296875
-169.12284173284024,436.60000610351563
-168.00119758325309,463.60000610351563
-166.8797696049769,472.79998779296875
-165.75855775503624,479.39999389648438
-164.6375619904702,491.39999389648438
-163.51678226832883,500.79998779296875
-162.39621854567667,530.20001220703125
-161.27587077957287,548.79998779296875
-160.15573892710927,547
-159.03582294536864,591.5999755859375
-157.91612279145556,601.20001220703125
-156.79663842247828,589.79998779296875
-155.67736979555957,570.20001220703125
-154.55831686783313,576.79998779296875
-153.43947959643447,557
-152.32085793852275,548.5999755859375
-151.20245185125532,544
-150.08426129180589,553.20001220703125
-148.96628621735545,559.5999755859375
-147.84852658509953,576
-146.73098235223915,571
-145.61365347598803,623.79998779296875
-144.49653991357081,642.79998779296875
-143.3796416222176,658.4000244140625
-142.26295855917488,676.79998779296875
-141.14649068169638,705.20001220703125
-140.03023794704677,724.20001220703125
-138.91420031250163,767.4000244140625
-137.79837773533836,780.4000244140625
-136.68277017286164,818.20001220703125
-135.56737758237068,862.79998779296875
-134.45219992117563,906
-133.33723714661573,964.5999755859375
-132.22248921601567,1024.4000244140625
-131.10795608672197,1071.800048828125
-129.99363771609387,1168
-128.87953406149063,1256.199951171875
-127.76564508029878,1344
-126.65197072989395,1390
-125.53851096768085,1478.5999755859375
-124.4252657510624,1595.5999755859375
-123.31223503745423,1612.5999755859375
-122.19941878428472,1668.4000244140625
-121.08681694899133,1682.199951171875
-119.97442948901517,1747.4000244140625
-118.8622563618228,1784.5999755859375
-117.75029752487717,1839.800048828125
-116.63855293565393,1904.800048828125
-115.52702255164331,1981.199951171875
-114.41570633034462,2076.800048828125
-113.30460422925898,2131.39990234375
-112.19371620590573,2258.199951171875
-111.08304221782055,2376.60009765625
-109.97258222253549,2521
-108.86233617759535,2642.199951171875
-107.75230404056492,2767.199951171875
-106.64248576901082,2946.60009765625
-105.53288132051239,3075.800048828125
-104.42349065265807,3231.39990234375
-103.31431372304178,3387.60009765625
-102.20535048927377,3584.800048828125
-101.09660090898069,3791.39990234375
-99.988064939780088,3999
-98.879742539320432,4225.39990234375
-97.771633665246554,4520.2001953125
-96.6637382752142,4861.2001953125
-95.556056326899125,5286.60009765625
-94.448587777975263,5574.60009765625
-93.34133258613474,5992.7998046875
-92.234290709076959,6384
-91.1274621045086,6787.60009765625
-90.020846730150879,7188.60009765625
-88.914444543732316,7474
-87.808255502995962,7749.2001953125
-86.7022795656867,7659.60009765625
-85.596516689563941,7425.7998046875
-84.490966832401682,7209
-83.385629951977535,7116.2001953125
-82.280506006080032,7167.7998046875
-81.175594952508618,7253.2001953125
-80.070896749077292,7519.60009765625
-78.966411353598232,7756
-77.862138723905446,8074.7998046875
-76.7580788178384,8356.2001953125
-75.654231593249278,8665.7998046875
-74.550597007988472,8971
-73.447175019935457,9480.400390625
-72.3439655869679,10097
-71.240968666974368,10936.400390625
-70.138184217854359,11567
-69.035612197516457,11751.400390625
-67.933252563881979,11538.7998046875
-66.831105274881338,11352
-65.7291702884504,11225.7998046875
-64.62744756254142,11275.400390625
-63.525937055112081,11651
-62.424638724134638,12013.400390625
-61.323552527588618,12560.7998046875
-60.222678423459,13063.599609375
-59.122016369747143,14029
-58.02156632446713,15038.7998046875
-56.92132824563123,15541.400390625
-55.821302091271718,15437.2001953125
-54.721487819426329,14500
-53.621885388145529,13450.2001953125
-52.522494755494336,12412
-51.423315879526854,11798.7998046875
-50.324348718333567,11767.7998046875
-49.225593230001323,12650
-48.12704937262788,15132.400390625
-47.028717104320094,19684.599609375
-45.930596383199372,24274.599609375
-44.832687167392578,26473.599609375
-43.734989415037489,26561.80078125
-42.637503084284617,26898.400390625
-41.540228133289929,29541.599609375
-40.443164520223945,35110.19921875
-39.346312203260823,42748.6015625
-38.249671140592909,49781.3984375
-37.153241290412552,53641.19921875
-36.057022610932108,55039.6015625
-34.961015060369391,56638.6015625
-33.865218596949489,60073.3984375
-32.769633178906588,59856.19921875
-31.6742587644967,57002.3984375
-30.579095311970377,52096.80078125
-29.484142779594549,48289.19921875
-28.389401125643417,45606.80078125
-27.29487030841301,42438
-26.200550286193902,40018.6015625
-25.106441017293037,37555.6015625
-24.012542460020995,35299.80078125
-22.918854572712007,32961.3984375
-21.82537731370212,32094
-20.7321106413292,30473.80078125
-19.639054513960218,28903.599609375
-18.546208889949412,26582.400390625
-17.453573727678304,25052.19921875
-16.361148985530235,23997
-15.268934621899461,23426
-14.176930595191152,22598.400390625
-13.085136863823209,22584.19921875
-11.993553386213534,22015.19921875
-10.902180120801859,21931
-9.8110170260297309,21299
-8.720064060353252,20709.400390625
-7.62932118223398,19885.19921875
-6.5387883501425677,17016
-5.448465522567858,10954
-4.3583526579986938,4746
-3.2684497149384697,715.5999755859375
-2.1787566519033135,187.39999389648438
-1.0892734274111717,170.60000610351563
0,654.4000244140625
1.0890636717958841,4219.60009765625
2.1779176294185163,10272.599609375
3.266561914309932,16495.599609375
4.354996567899434,19488
5.443221631601773,20574.400390625
6.5312371468298807,21602.599609375
7.6190431549803179,22169.19921875
8.7066396974460076,22854.80078125
9.7940268156035017,23233.19921875
10.881204550825714,23671.599609375
11.968172944472826,24379
13.054932037890467,25162.80078125
14.141481872427903,26464.80078125
15.227822489416212,27864.19921875
16.313953930162825,30086.80078125
17.399876235997,32086.599609375
18.485589448209794,34140.6015625
19.571093608095907,35600
20.656388756942761,37614.6015625
21.74147493601231,40121
22.826352186579243,42804.19921875
23.911020549890964,45952.3984375
24.995480067191238,49127.19921875
26.079730779716556,52385.19921875
27.163772728685217,56235.19921875
28.247605955324616,61633.80078125
29.331230500825768,64863
30.414646406390602,64863
31.49785371319922,64867
32.58085246243354,63199.3984375
33.663642695257295,62615.80078125
34.746224452830575,60531.19921875
35.828597776289826,54322.6015625
36.910762706780588,45130
37.992719285430212,37366.19921875
39.074467553356953,32816.19921875
40.156007551660878,31424.19921875
41.237339321447507,31771.19921875
42.318462903804175,30782
43.39937833980548,26862.400390625
44.48008567053148,20935.80078125
45.560584937029489,16576.19921875
46.6408761803541,14704
47.720959441552623,14196.599609375
48.80083476164873,14651.2001953125
49.880502181658812,15753.599609375
50.9599617426029,17129.80078125
52.039213485481014,18561.400390625
53.118257451287718,19381.400390625
54.197093680997568,19546
55.275722215592396,18621.599609375
56.354143096026746,17298.599609375
57.432356363258805,16262.2001953125
58.510362058235842,15860.400390625
59.588160221886938,15235.599609375
60.665750895142992,14842.7998046875
61.743134118913076,14546.599609375
62.820309934106263,14530
63.89727838161707,14731.7998046875
64.974039502334563,15142.599609375
66.050593337131431,15398
67.12693992687673,15098
68.203079312430418,14303
69.2790115346379,13445.599609375
70.354736634337314,12642.2001953125
71.43025465235587,12014.400390625
72.505565629522607,11622.2001953125
73.580669606635638,11327.599609375
74.655566624502171,10952
75.730256723907587,10595.2001953125
76.804739945639085,10319
77.879016330462036,10088.400390625
78.953085919145451,9931.2001953125
80.026948752434691,9775.400390625
81.10060487107512,10023.7998046875
82.174054315803,10219.599609375
83.247297127336424,10665
84.320333346397092,10893
85.39316301368126,10799.7998046875
86.465786169887,10444.7998046875
87.538202855701456,9976.599609375
88.610413111804519,9459
89.682416978852416,8956.2001953125
90.754214497510475,8470.599609375
91.825805708424014,7843.39990234375
92.897190652229256,7531.39990234375
93.968369369558786,6958.60009765625
95.039341901027,6499.7998046875
96.110108287242838,6187
97.180668568809779,5848.39990234375
98.251022786316753,5552.7998046875
99.321170980345414,5224.39990234375
100.39111319146468,5062.7998046875
101.46084946023984,4823.7998046875
102.53037982722162,4618.7998046875
103.59970433295166,4418.39990234375
104.66882301796431,4178.60009765625
105.73773592278485,4054.39990234375
106.8064430879258,3842.39990234375
107.87494455389424,3655.199951171875
108.94324036118269,3493.60009765625
110.01133055028004,3382.39990234375
111.07921516166243,3277.60009765625
112.1468942357933,3155.39990234375
113.21436781313787,3055.39990234375
114.28163593413956,2969.199951171875
115.3486986392345,2914.800048828125
116.41555596884973,2837.39990234375
117.48220796341775,2796
118.54865466334195,2757.199951171875
119.61489610901845,2687.39990234375
120.68093234084154,2620
121.74676339919642,2551.39990234375
122.81238932445376,2432.39990234375
123.87781015697874,2299.800048828125
124.94302593711836,2183.800048828125
126.00803670522509,2029.4000244140625
127.07284250162593,1928
128.13744336665695,1808.5999755859375
129.20183934062334,1723.5999755859375
130.26603046383752,1638.800048828125
131.33001677659377,1558.4000244140625
132.3937983191845,1479.4000244140625
133.4573751318876,1418
134.52074725496641,1384
135.58391472868425,1319.800048828125
136.6468775932899,1274.5999755859375
137.70963588902487,1228.5999755859375
138.77218965612155,1203.4000244140625
139.83453893480146,1159.800048828125
140.89668376527698,1133.800048828125
141.95862418775323,1104.5999755859375
143.02036024241897,1081.199951171875
144.0818919694666,1026.5999755859375
145.14321940906302,1006.7999877929688
146.20434260137881,998.20001220703125
147.26526158656816,968.4000244140625
148.32597640478161,976.5999755859375
149.38648709615154,987.20001220703125
150.4467937008103,1016
151.50689625887571,1046.5999755859375
152.5667948104583,1075.5999755859375
153.62648939565406,1115.199951171875
154.68598005455897,1099.199951171875
155.74526682725445,1088.199951171875
156.8043497538074,1037.199951171875
157.86322887428469,1012.2000122070313
158.9219042287441,976
159.98037585721977,938.20001220703125
161.03864379975494,954.20001220703125
162.096708096371,910.5999755859375
163.15456878708392,904.20001220703125
164.21222591190417,881.79998779296875
165.2696795108277,842.20001220703125
166.32692962384135,806
167.38397629092287,770
168.4408195520482,701
169.4974594471696,665.79998779296875
170.55389601624302,609.79998779296875
171.61012929921162,579.5999755859375
172.66615933600406,531.4000244140625
173.7219861665435,511.60000610351563
174.7776098307495,470.79998779296875
175.83303036851612,466
176.88824781974836,434
177.94326222432755,420.79998779296875
178.99807362213323,398.39999389648438
180.05268205302673,390
181.10708755687847,388.39999389648438
182.16129017352432,373.39999389648438
183.21528994280743,371.20001220703125
184.26908690456366,355.20001220703125
185.32268109860706,371
186.37607256475167,369.20001220703125
187.42926134280606,369.79998779296875
188.482247472557,359
189.53503099378759,342.60000610351563
190.58761194627914,373.79998779296875
191.63999036979294,368.20001220703125
192.692166304083,352.20001220703125
193.7441397888997,352.20001220703125
194.79591086397886,359.60000610351563
195.8474795690563,357.79998779296875
196.89884594384057,355.20001220703125
197.95001002804929,348.20001220703125
199.00097186138009,343.79998779296875
200.05173148352878,339.39999389648438
201.10228893417116,335.79998779296875
202.15264425298847,336.60000610351563
203.2027974796365,327.39999389648438
204.25274865377651,329.20001220703125
205.30249781504972,324.79998779296875
206.35204500309737,329
207.4013902575407,320.20001220703125
208.45053361800274,310.79998779296875
209.49947512409562,311.20001220703125
210.54821481540785,304.20001220703125
211.59675273154062,310.39999389648438
212.64508891206788,314.79998779296875
213.69322339656719,301.79998779296875
214.74115622459976,312
215.78888743571224,310
216.83641706946219,313.60000610351563
217.88374516537988,302.39999389648438
218.93087176298468,303.20001220703125
219.97779690180323,289
221.02452062133852,296
222.0710429610881,274.79998779296875
223.11736396054403,266
224.16348365918566,250.60000610351563
225.2094020964887,250.39999389648438
226.25511931190886,238.60000610351563
227.3006353449,217.80000305175781
228.34595023491056,217.60000610351563
229.39106402137622,212.60000610351563
230.43597674371449,199
231.48068844134468,197.19999694824219
232.52519915367702,202.39999389648438
233.569508920109,192.60000610351563
234.61361778002538,191.80000305175781
235.65752577281455,183.60000610351563
236.70123293784127,188.60000610351563
237.74473931446664,174.80000305175781
238.78804494204451,181.39999389648438
239.83114985991779,164
240.87405410742394,172
241.91675772388407,154.19999694824219
242.95926074861745,156.19999694824219
244.00156322093062,154.60000610351563
245.04366518011921,152.80000305175781
246.08556666547338,144.60000610351563
247.12726771627604,135.19999694824219
248.16876837179188,136.19999694824219
249.21006867128381,122.80000305175781
250.25116865401105,134.80000305175781
251.29206835920559,123
252.33276782611392,125.19999694824219
253.37326709395347,109
254.41356620194165,122.40000152587891
255.45366518928495,117.40000152587891
256.49356409518441,123.19999694824219
257.53326295883016,123.19999694824219
258.57276181939596,114.59999847412109
259.61206071605739,111.80000305175781
260.65115968797545,113.19999694824219
261.69005877429845,110.19999694824219
262.72875801417831,115
263.76725744674513,104.59999847412109
264.80555711111992,118.80000305175781
265.84365704643096,108
266.88155729177379,106.19999694824219
267.91925788625122,94.800003051757813
268.95675886895515,102
269.99406027896839,97.199996948242188
271.03116215535192,92
272.06806453717945,94.5999984741211
273.10476746349923,95.4000015258789
274.14127097334858,91.5999984741211
275.17757510577758,94
276.21367989980354,84.199996948242188
277.24958539444378,79
278.28529162870836,81.4000015258789
279.32079864159641,86.4000015258789
280.35610647209614,82.199996948242188
281.39121515919214,86.4000015258789
282.42612474185262,72.800003051757813
283.46083525904578,72
284.49534674972347,76
285.52965925283388,78
286.56377280730703,70
287.59768745207475,70.199996948242188
288.63140322605432,69
289.66492016815391,69.5999984741211
290.6982383172799,59
291.73135771231318,68.5999984741211
292.76427839214739,72.5999984741211
293.79700039564887,56
294.82952376168032,66.4000015258789
295.86184852910264,63.400001525878906
296.89397473676581,55.599998474121094
297.92590242349979,63
298.95763162813637,58.599998474121094
299.9891623894946,47.400001525878906
301.02049474638625,63.200000762939453
302.05162873761219,64.800003051757813
303.082564401966,56
304.1133017782322,57.599998474121094
305.14384090518251,55.400001525878906
306.1741818215869,56.400001525878906
307.20432456620438,68.5999984741211
308.23426917777579,71.199996948242188
309.26401569504924,53.799999237060547
310.29356415674738,75.4000015258789
311.32291460160013,68
312.35206706831377,79.199996948242188
313.38102159559276,79.199996948242188
314.40977822213063,88.199996948242188
315.43833698661547,99.5999984741211
316.46669792772627,118.19999694824219
317.49486108412748,133.19999694824219
318.52282649447989,179.80000305175781
319.55059419743338,214.39999389648438
320.5781642316324,241
321.60553663570317,274
322.63271144827559,340.60000610351563
323.65968870795768,408.39999389648438
324.68646845335934,477.79998779296875
325.71305072307769,498
326.73943555570077,504.79998779296875
327.76562298980934,447.20001220703125
328.79161306396782,353
329.81740581674421,268.39999389648438
330.84300128668838,198.60000610351563
331.86839951234651,149.19999694824219
332.89360053224482,117.80000305175781
333.9186043849204,80.4000015258789
334.9434111088849,61
335.96802074264451,45.200000762939453
336.9924333247036,44.599998474121094
338.016648893552,36
339.04066748766672,30
340.06448914552857,37
341.08811390559458,29.399999618530273
342.11154180632184,21.200000762939453
343.13477288616014,23.799999237060547
344.15780718354108,29
345.1806447368981,20.600000381469727
346.20328558465189,22
347.22572976520678,13.399999618530273
348.24797731697436,29.799999237060547
349.2700282783444,20.200000762939453
350.29188268769758,17.399999618530273
351.3135405834164,16
352.3350020038597,21
353.35626698739179,11.399999618530273
354.37733557236061,19
355.39820779711044,11.800000190734863
356.41888369996741,13.399999618530273
357.43936331925579,10.199999809265137
358.4596466932926,24.200000762939453
359.47973386038029,17.399999618530273
360.4996248588177,14
361.51931972688908,12
362.53881850287689,8.1999998092651367
363.55812122505267,15
364.57722793167341,10
365.59613866099608,17.600000381469727
366.61485345126675,0.40000000596046448
367.63337234071332,13.199999809265137
368.65169536756548,18.399999618530273
369.66982257004383,9
370.68775398635444,8.6000003814697266
371.70548965469789,17.399999618530273
372.7230296132675,5.8000001907348633
373.74037390024205,15.199999809265137
374.75752255379666,11
375.7744756120992,8.3999996185302734
376.79123311330659,12.600000381469727
377.80779509556305,3.5999999046325684
378.82416159700733,13.399999618530273
379.84033265577273,13
380.856308309978,15
381.87208859774,5.1999998092651367
382.88767355716118,7
383.90306322633296,17.600000381469727
384.918257643345,4.8000001907348633
385.933256846276,15.199999809265137
386.94806087319375,17.200000762939453
387.96266976215884,7.1999998092651367
388.97708355122268,9.6000003814697266
389.99130227842943,7
391.005325981816,10.399999618530273
392.01915469940104,-0.40000000596046448
393.03278846921057,10.199999809265137
394.04622732924145,3.7999999523162842
395.05947131750145,8.6000003814697266
396.072520471982,4.5999999046325684
397.08537483066175,8.1999998092651367
398.09803443151395,11.399999618530273
399.11049931250454,0.20000000298023224
400.12276951158856,7.5999999046325684
401.13484506671739,2.7999999523162842
402.14672601582424,13
403.15841239684596,8.1999998092651367
404.16990424769574,7
405.18120160629041,8.8000001907348633
406.19230451053772,8.8000001907348633
407.20321299832722,11.399999618530273
408.21392710754844,19
409.22444687608004,13.199999809265137
410.2347723417879,6
411.24490354253794,10.199999809265137
412.25484051617786,8
413.26458330055357,5.5999999046325684
414.27413193350003,14.800000190734863
415.28348645284314,-0.60000002384185791
416.29264689639967,8.3999996185302734
417.30161330197734,11.199999809265137
418.310385707382,15
419.31896415039773,8.1999998092651367
420.327348668814,6.4000000953674316
421.33553930040034,10.399999618530273
422.34353608292622,5.4000000953674316
423.35133905414659,10.600000381469727
424.35894825181094,6.4000000953674316
425.366363713656,10.600000381469727
426.37358547742224,12.199999809265137
427.38061358082268,3.4000000953674316
428.38744806157592,11.600000381469727
429.39408895738779,10
430.40053630595321,5.4000000953674316
431.40679014495618,19.200000762939453
432.41285051209161,3.5999999046325684
433.41871744501259,6.8000001907348633
434.42439098139221,1.6000000238418579
435.42987115888172,10.199999809265137
436.43515801512694,-0.60000002384185791
437.4402515877664,0.60000002384185791
438.44515191442224,15.800000190734863
439.44985903272209,4.4000000953674316
440.45437298026809,6.5999999046325684
441.45869379467149,6.5999999046325684
442.4628215135217,1.2000000476837158
443.46675617440451,5.8000001907348633
444.47049781489659,7.5999999046325684
445.47404647256735,1.6000000238418579
446.47740218497347,2.2000000476837158
447.480564989668,2.7999999523162842
448.483534924193,9.3999996185302734
449.48631202608703,2.2000000476837158
450.48889633286853,4.5999999046325684
451.49128788205962,8.3999996185302734
452.49348671116604,1.3999999761581421
453.49549285768262,11.600000381469727
454.49730635911328,2
455.49892725292921,8
456.50035557661067,6.8000001907348633
457.50159136762159,8.1999998092651367
458.50263466341676,3.5999999046325684
459.503485501451,8
460.50414391915729,5
461.50460995397043,15
462.5048836433125,16.799999237060547
463.50496502460373,13
464.50485413524257,22.200000762939453
465.50455101262742,37
466.50405569415489,35.599998474121094
467.50336821719429,54.400001525878906
468.50248861912587,81.4000015258789
469.50141693731166,96.800003051757813
470.50015320910279,114.19999694824219
471.49869747185039,108.80000305175781
472.49704976288922,117.59999847412109
473.49521011955221,92.800003051757813
474.49317857915776,77.5999984741211
475.49095517901515,53
476.48853995643731,38
477.48593294871353,32
478.48313419313126,21.600000381469727
479.48014372697253,17.799999237060547
480.47696158750477,9.1999998092651367
481.47358781198818,11.800000190734863
482.47002243768111,8.1999998092651367
483.46626550182373,1.3999999761581421
484.46231704165621,7.1999998092651367
485.45817709440053,4
486.45384569728049,5
487.44932288750715,-3
488.44460870228249,0.20000000298023224
489.43970317880303,8
490.4346063542489,-2
491.42931826580025,3.5999999046325684
492.4238389506263,1.7999999523162842
493.41816844588539,-1
494.41230678873217,2.2000000476837158
495.40625401630859,2.4000000953674316
496.40001016574752,2
497.39357527418179,-5.4000000953674316
498.3869493787206,3
499.3801325164859,3.4000000953674316
500.37312472456688,2.2000000476837158
501.36592604006182,-0.800000011920929
502.35853650005447,4
503.35095614162128,2.5999999046325684
504.34318500183144,-1.2000000476837158
505.33522311774323,5.4000000953674316
506.32707052640581,-0.40000000596046448
507.3187272648629,-2.2000000476837158
508.31019337014914,-9
509.30146887928822,1.6000000238418579
510.29255382930023,3
511.28344825719068,-7.8000001907348633
512.27415219996328,1.6000000238418579
513.26466569460717,4.8000001907348633
514.25498877810969,5.5999999046325684
515.24512148744543,4.8000001907348633
516.23506385957626,-1.6000000238418579
517.22481593147131,-0.20000000298023224
518.214377740067,1.6000000238418579
519.20374932231425,7.1999998092651367
520.19293071514585,-2.4000000953674316
521.18192195548909,3
522.17072308025308,-3.2000000476837158
523.15933412635422,10.600000381469727
524.14775513068525,-0.40000000596046448
525.13598613014619,5.4000000953674316
526.12402716160977,8.8000001907348633
527.11187826196146,0
528.09953946806127,6.4000000953674316
529.08701081677282,12
530.07429234493793,11.600000381469727
531.06138408940751,17.200000762939453
532.048286087007,32
533.03499837456729,24.799999237060547
534.0215209889011,21.600000381469727
535.00785396682113,14.399999618530273
535.99399734512008,6.1999998092651367
536.97995116059792,6.5999999046325684
537.965715450031,2
538.95129025019924,4.1999998092651367
539.93667559786809,-2.2000000476837158
540.921871529792,7
541.90687808272924,-3.4000000953674316
542.89169529341052,-1.3999999761581421
543.87632319857767,-3.5999999046325684
544.86076183495788,-3.4000000953674316
545.84501123925838,4.1999998092651367
546.82907144819546,-1
547.8129424984636,0.40000000596046448
548.7966244267609,0.20000000298023224
549.78011726976547,1.7999999523162842
550.76342106415723,-0.20000000298023224
551.74653584660155,4.8000001907348633
552.7294616537547,0.800000011920929
553.71219852227114,-1.3999999761581421
554.69474648879077,-4.4000000953674316
555.677105589948,8
556.65927586237194,2
557.64125734267327,-7.5999999046325684
558.62305006746465,-2.4000000953674316
559.604654073346,-3.2000000476837158
560.58606939691163,1
561.56729607475063,-3.7999999523162842
562.54833414342647,1.7999999523162842
563.5291836395154,1.6000000238418579
564.50984459957726,7
565.490317060161,8.8000001907348633
566.4706010578102,13.199999809265137
567.450696629061,12.199999809265137
568.43060381044052,21.600000381469727
569.41032263846137,56.799999237060547
570.38985314963975,84.800003051757813
571.36919538047732,85.199996948242188
572.348349367463,76.4000015258789
573.32731514708939,30.600000381469727
574.30609275582538,14.800000190734863
575.28468223014534,3.5999999046325684
576.26308360651274,12.600000381469727
577.24129692136921,7.8000001907348633
578.219322211171,1.3999999761581421
579.197159512345,6
580.17480886132762,-0.20000000298023224
581.15227029453308,-1.3999999761581421
582.12954384837394,0.20000000298023224
583.10662955925181,2.4000000953674316
584.08352746356286,-2.2000000476837158
585.06023759769778,0.800000011920929
586.03675999802908,-10.199999809265137
587.01309470092929,3.7999999523162842
587.98924174276181,-4.8000001907348633
588.965201159881,-1
589.940972988632,1.7999999523162842
590.916557265351,-8.3999996185302734
591.89195402637051,9.8000001907348633
592.86716330800846,0.40000000596046448
593.84218514657914,6
594.81701957839141,1.6000000238418579
595.79166663973774,0
596.76612636690516,-0.40000000596046448
597.74039879617885,0
598.71448396382948,-3.4000000953674316
599.68838190611859,2.2000000476837158
600.66209265930229,3.5999999046325684
601.63561625963666,-0.60000002384185791
602.60895274334871,-3.7999999523162842
603.58210214668,1.6000000238418579
604.55506450584653,-2.7999999523162842
605.52783985706992,-1
606.50042823655167,2
607.472829680497,4.5999999046325684
608.44504422508908,0.40000000596046448
609.41707190651687,3.2000000476837158
610.38891276095092,-0.800000011920929
611.36056682456,5.8000001907348633
612.332034133502,21.600000381469727
613.3033147239239,16.799999237060547
614.2744086319708,37.400001525878906
615.24531589377693,26.200000762939453
616.216036545462,6.8000001907348633
617.18657062315287,7.5999999046325684
618.15691816295475,-1.6000000238418579
619.12707920096727,5.1999998092651367
620.09705377328282,2.4000000953674316
621.06684191599379,0
622.03644366517074,14
623.0058590568824,-6.4000000953674316
623.97508812719207,-2.2000000476837158
624.94413091215029,1
625.912987447804,-3
626.88165777019094,6
627.85014191533446,1.6000000238418579
628.81843991925962,-9.8000001907348633
629.78655181797694,-4.5999999046325684
630.75447764748969,-1.7999999523162842
631.72221744379385,1.6000000238418579
632.68977124288176,-0.40000000596046448
633.65713908072576,0.20000000298023224
634.62432099330545,-0.20000000298023224
635.59131701657861,4
636.55812718650486,0.40000000596046448
637.52475153902742,2
638.49119011009134,5.1999998092651367
639.45744293562529,5
640.42351005155251,-11.199999809265137
641.38939149379257,-0.800000011920929
642.355087298245,3.5999999046325684
643.32059750081135,5
644.28592213738557,-7
645.25106124385456,4.4000000953674316
646.216014856087,-0.20000000298023224
647.18078300994785,-3.5999999046325684
648.1453657413058,-1.2000000476837158
649.10976308600038,1.6000000238418579
650.07397507988208,-1.3999999761581421
651.03800175878678,-5.8000001907348633
652.00184315853767,13.600000381469727
652.96549931495247,-5.5999999046325684
653.92897026384526,4.8000001907348633
654.89225604101739,-6.1999998092651367
655.85535668226476,5.8000001907348633
656.81827222337415,-2.7999999523162842
657.78100270012328,-3.7999999523162842
658.74354814828257,0.20000000298023224
659.70590860361335,-0.40000000596046448
660.66808410187514,-3
661.63007467881289,-4
662.59188037016247,2.4000000953674316
663.55350121165611,5.8000001907348633
664.514937239017,-1.3999999761581421
665.47618848796083,-2
666.4372549941927,-7
667.39813679341023,-8.8000001907348633
668.35883392130745,-4.4000000953674316
669.31934641356565,-6.5999999046325684
670.27967430585886,-8.1999998092651367
671.23981763385382,1.2000000476837158
672.19977643321,0.40000000596046448
673.15955073957775,-2.7999999523162842
674.119140588602,-1.6000000238418579
675.07854601591134,-2.7999999523162842
676.03776705714154,-1.7999999523162842
676.99680374790478,3.2000000476837158
677.95565612381506,0.60000002384185791
678.91432422047183,-8.3999996185302734
679.87280807347634,-1
680.83110771841166,-3
681.78922319085541,-6.1999998092651367
682.74715452638156,3.5999999046325684
683.70490176055318,1
684.66246492892424,-0.40000000596046448
