-777.74687133807856,4
-776.50770429765,7
-775.26877705141487,6.5999999046325684
-774.03008955063888,15.600000381469727
-772.79164174658763,5.5999999046325684
-771.55343359055223,12.600000381469727
-770.31546503381287,8
-769.07773602767884,6.1999998092651367
-767.8402465234667,7.5999999046325684
-766.60299647250758,9.3999996185302734
-765.36598582614351,8.8000001907348633
-764.12921453572744,5.1999998092651367
-762.89268255262323,7.1999998092651367
-761.65638982821292,6.5999999046325684
-760.42033631388222,2.5999999046325684
-759.184521961035,11.399999618530273
-757.948946721086,10.600000381469727
-756.71361054546833,4.5999999046325684
-755.47851338560758,8.6000003814697266
-754.24365519296589,19.399999618530273
-753.009035918998,9.1999998092651367
-751.77465551518071,4.1999998092651367
-750.5405139330087,7
-749.30661112396592,12.199999809265137
-748.0729470395836,8.3999996185302734
-746.8395216313711,12.600000381469727
-745.60633485086328,6.1999998092651367
-744.3733866496168,9.6000003814697266
-743.14067697918108,7.1999998092651367
-741.90820579113461,-3.4000000953674316
-740.67597303705952,8
-739.44397866855252,9.8000001907348633
-738.21222263721756,10.399999618530273
-736.98070489468046,10.399999618530273
-735.749425392567,7
-734.51838408252479,10.600000381469727
-733.28758091621239,5.8000001907348633
-732.057015845292,-0.60000002384185791
-730.82668882144753,11.399999618530273
-729.59659979637036,3.5999999046325684
-728.366748721759,7.1999998092651367
-727.13713554934475,10.199999809265137
-725.90776023084072,11.199999809265137
-724.67862271799277,2
-723.449722962554,6.4000000953674316
-722.22106091628848,6.5999999046325684
-720.99263653096386,10
-719.76444975838785,9
-718.53650055034268,5.1999998092651367
-717.308788858647,13.800000190734863
-716.08131463512655,4
-714.85407783161827,3.7999999523162842
-713.62707839996983,8.6000003814697266
-712.40031629203258,7.1999998092651367
-711.17379145969062,11.800000190734863
-709.94750385482075,7.5999999046325684
-708.72145342932527,11.800000190734863
-707.49564013510644,6
-706.27006392408839,7.8000001907348633
-705.04472474819522,14.399999618530273
-703.81962255938379,8.6000003814697266
-702.59475730959639,1
-701.3701289508117,9
-700.14573743500478,7.1999998092651367
-698.9215827141652,7.1999998092651367
-697.69766474030075,11
-696.47398346541922,6.5999999046325684
-695.25053884156114,10.600000381469727
-694.02733082075611,13
-692.80435935505557,7.8000001907348633
-691.58162439652915,8
-690.35912589724649,14
-689.13686380929175,9.8000001907348633
-687.91483808476733,3.4000000953674316
-686.69304867578649,6.5999999046325684
-685.47149553447343,4.1999998092651367
-684.25017861295237,7.8000001907348633
-683.02909786337659,2.7999999523162842
-681.80825323790668,5.4000000953674316
-680.5876446887105,3.5999999046325684
-679.3672721679668,13
-678.14713562787256,3.4000000953674316
-676.92723502063564,7.1999998092651367
-675.70757029846391,4.5999999046325684
-674.48814141360162,11.399999618530273
-673.26894831827849,4.1999998092651367
-672.04999096475331,12.199999809265137
-670.83126930528488,6.8000001907348633
-669.61278329215747,7.5999999046325684
-668.39453287765537,9.6000003814697266
-667.176518014081,4.8000001907348633
-665.95873865374051,4.1999998092651367
-664.7411947489727,7.4000000953674316
-663.5238862520946,3.4000000953674316
-662.30681311546687,6
-661.0899752914429,10.800000190734863
-659.87337273240155,3.4000000953674316
-658.6570053907144,8.8000001907348633
-657.44087321878942,10.199999809265137
-656.22497616902,7.4000000953674316
-655.009314193836,6
-653.79388724565979,9.8000001907348633
-652.57869527693947,11
-651.363738240123,2
-650.14901608768014,7.8000001907348633
-648.93452877208438,3
-647.720276245831,11
-646.5062584614152,7.5999999046325684
-645.29247537135416,3.2000000476837158
-644.078926928165,10.800000190734863
-642.86561308439377,0.40000000596046448
-641.65253379257956,1.3999999761581421
-640.43968900529035,7.8000001907348633
-639.22707867508689,4.4000000953674316
-638.01470275456631,3.2000000476837158
-636.80256119630758,7.4000000953674316
-635.590653952926,7.4000000953674316
-634.37898097704056,4.4000000953674316
-633.16754222128111,6.8000001907348633
-631.95633763828118,8.6000003814697266
-630.745367180707,6.8000001907348633
-629.534630801214,5.8000001907348633
-628.32412845248655,6.1999998092651367
-627.11386008720547,11.600000381469727
-625.9038256580734,12.800000190734863
-624.69402511780754,7
-623.48445841912508,10.800000190734863
-622.27512551476138,1.6000000238418579
-621.0660263574664,7.8000001907348633
-619.85716089999733,8.8000001907348633
-618.64852909512592,12.199999809265137
-617.44013089563123,4.1999998092651367
-616.2319662543141,9.1999998092651367
-615.0240351239645,7.4000000953674316
-613.81633745741237,2
-612.60887320749134,7.8000001907348633
-611.40164232702409,5.1999998092651367
-610.194644768877,3.4000000953674316
-608.98788048590177,6.5999999046325684
-607.781349430983,8.8000001907348633
-606.57505155700892,6
-605.36898681687126,4.8000001907348633
-604.1631551634764,8.8000001907348633
-602.95755654975983,0.20000000298023224
-601.75219092864245,6
-600.54705825307065,3.5999999046325684
-599.34215847600535,6.1999998092651367
-598.13749155041478,3
-596.93305742927441,3.5999999046325684
-595.72885606557793,6
-594.52488741232992,8.8000001907348633
-593.32115142254224,6.1999998092651367
-592.117648049245,7.8000001907348633
-590.91437724546449,4.4000000953674316
-589.71133896426,0.20000000298023224
-588.50853315869062,6.5999999046325684
-587.30595978182646,-0.40000000596046448
-586.10361878675576,4.1999998092651367
-584.90151012657043,-1
-583.69963375437328,2.7999999523162842
-582.49798962329442,11
-581.296577686453,5
-580.09539789699556,8.1999998092651367
-578.894450208074,10.600000381469727
-577.69373457285474,7.4000000953674316
-576.4932509445116,14.600000381469727
-575.29299927623651,9
-574.09297952122142,5.1999998092651367
-572.89319163268192,7.1999998092651367
-571.69363556384451,4.1999998092651367
-570.49431126793752,10
-569.29521869820383,3
-568.09635780790632,7.4000000953674316
-566.89772855030969,15.399999618530273
-565.69933087869686,3
-564.50116474635433,9
-563.30323010658867,6.5999999046325684
-562.1055269127155,9.1999998092651367
-560.90805511805775,10.800000190734863
-559.710814675951,6.4000000953674316
-558.513805539751,8.1999998092651367
-557.31702766280978,10
-556.12048099851017,4.4000000953674316
-554.92416550022062,0
-553.72808112134589,5.8000001907348633
-552.53222781529075,5.4000000953674316
-551.33660553547088,8.3999996185302734
-550.14121423531651,1.2000000476837158
-548.94605386826515,9.1999998092651367
-547.75112438777614,2
-546.55642574730518,10.399999618530273
-545.361957900328,9.3999996185302734
-544.167720800333,1.6000000238418579
-542.97371440082134,7.1999998092651367
-541.77993865529243,11.199999809265137
-540.58639351727652,8.6000003814697266
-539.39307894030026,4.8000001907348633
-538.19999487790665,2.7999999523162842
-537.00714128365507,12.600000381469727
-535.81451811110674,5
-534.622125313841,10.399999618530273
-533.42996284544643,7.8000001907348633
-532.23803065952234,2.2000000476837158
-531.04632870968271,4.5999999046325684
-529.85485694955059,9.8000001907348633
-528.66361533275631,4.8000001907348633
-527.47260381295564,4.4000000953674316
-526.28182234379165,10.199999809265137
-525.09127087894194,3.4000000953674316
-523.90094937208778,12.800000190734863
-522.71085777691223,2.4000000953674316
-521.52099604712748,9.3999996185302734
-520.33136413644206,5.1999998092651367
-519.14196199858088,9
-517.95278958728341,5.1999998092651367
-516.76384685629819,5
-515.57513375937924,10.399999618530273
-514.38665025030423,0.40000000596046448
-513.19839628285263,7.5999999046325684
-512.01037181081665,6.4000000953674316
-510.82257678800124,6.5999999046325684
-509.63501116822226,5.1999998092651367
-508.44767490530649,11.199999809265137
-507.26056795309523,5
-506.07369026543893,6.4000000953674316
-504.88704179619526,2.4000000953674316
-503.70062249923831,5
-502.51443232845486,4
-501.32847123773354,3.2000000476837158
-500.14273918098661,1.7999999523162842
-498.95723611213,4.5999999046325684
-497.77196198509228,3.4000000953674316
-496.58691675381124,8.1999998092651367
-495.40210037224642,-2
-494.21751279435375,4.1999998092651367
-493.03315397410915,7.5999999046325684
-491.84902386549584,6.8000001907348633
-490.665122422517,8
-489.48144959917408,-6
-488.29800534949027,6.4000000953674316
-487.11478962749243,6.5999999046325684
-485.93180238722562,5.1999998092651367
-484.74904358273852,6.1999998092651367
-483.5665131681053,8.8000001907348633
-482.38421109738738,1.7999999523162842
-481.2021373246771,1.6000000238418579
-480.0202918040759,-2.4000000953674316
-478.83867448969067,3.7999999523162842
-477.65728533564106,4.4000000953674316
-476.47612429605579,10.800000190734863
-475.2951913250854,3.7999999523162842
-474.11448637687681,6.1999998092651367
-472.93400940559695,0.40000000596046448
-471.75376036542184,8.1999998092651367
-470.57373921054023,6.5999999046325684
-469.39394589515177,4.4000000953674316
-468.21438037346343,9.1999998092651367
-467.03504259970032,0.40000000596046448
-465.8559325280894,10.199999809265137
-464.67705011287944,2.7999999523162842
-463.49839530831923,0.60000002384185791
-462.31996806867937,2.5999999046325684
-461.14176834823775,9.3999996185302734
-459.96379610127588,7
-458.78605128210074,4.8000001907348633
-457.60853384501752,5.5999999046325684
-456.43124374435138,11.800000190734863
-455.25418093443295,-1.7999999523162842
-454.07734536960925,1.6000000238418579
-452.90073700422909,6.4000000953674316
-451.7243557926613,-1.7999999523162842
-450.54820168928381,-0.800000011920929
-449.37227464848911,5.5999999046325684
-448.19657462467148,2.4000000953674316
-447.02110157224524,6.1999998092651367
-445.84585544562833,9.1999998092651367
-444.67083619925324,2.7999999523162842
-443.49604378757067,6
-442.32147816503129,1.7999999523162842
-441.14713928610036,-0.20000000298023224
-439.97302710525764,2
-438.79914157698659,2
-437.62548265579426,4.5999999046325684
-436.45205029618774,3.4000000953674316
-435.27884445268865,6.5999999046325684
-434.10586507982771,7.4000000953674316
-432.93311213215566,4.1999998092651367
-431.76058556421776,4.4000000953674316
-430.58828533058477,7.4000000953674316
-429.41621138583832,5.5999999046325684
-428.24436368456008,5.4000000953674316
-427.07274218135353,2.5999999046325684
-425.90134683082943,0.800000011920929
-424.73017758760216,7
-423.55923440631159,6.5999999046325684
-422.38851724159576,-0.800000011920929
-421.21802604811455,8.1999998092651367
-420.04776078052782,2.2000000476837158
-418.87772139351546,4.8000001907348633
-417.70790784176643,7.1999998092651367
-416.53832007998062,11.199999809265137
-415.36895806286157,2
-414.19982174513279,8.1999998092651367
-413.03091108152512,6
-411.86222602678754,1.2000000476837158
-410.69376653566542,5.1999998092651367
-409.52553256292776,6.1999998092651367
-408.35752406334905,0.800000011920929
-407.18974099171828,3.5999999046325684
-406.02218330282813,5.4000000953674316
-404.85485095149124,6.4000000953674316
-403.68774389253122,2.7999999523162842
-402.5208620807698,6.1999998092651367
-401.35420547105241,3.2000000476837158
-400.18777401823172,2
-399.02156767717497,9.3999996185302734
-397.85558640275485,-6.4000000953674316
-396.68983014985315,3.2000000476837158
-395.52429887336984,-0.800000011920929
-394.35899252820855,4.8000001907348633
-393.1939110692947,3.7999999523162842
-392.02905445155375,10.600000381469727
-390.8644226299275,2.5999999046325684
-389.70001555936324,-3.2000000476837158
-388.53583319482641,0.800000011920929
-387.37187549128976,-1.2000000476837158
-386.20814240373875,6.8000001907348633
-385.04463388716613,7.1999998092651367
-383.8813498965792,0.60000002384185791
-382.71829038699252,4.4000000953674316
-381.55545531343887,3.5999999046325684
-380.392844630951,-3.7999999523162842
-379.23045829458351,5.8000001907348633
-378.06829625939463,5.4000000953674316
-376.90635848045895,0.800000011920929
-375.74464491285289,10.600000381469727
-374.58315551167289,3.5999999046325684
-373.42189023202263,3.4000000953674316
-372.26084902901857,4.4000000953674316
-371.10003185778623,0.60000002384185791
-369.93943867346024,5.4000000953674316
-368.77906943119342,-2.4000000953674316
-367.61892408613858,2.4000000953674316
-366.45900259346672,1.2000000476837158
-365.29930490835977,-1.2000000476837158
-364.13983098601057,3.4000000953674316
-362.98058078161557,8.1999998092651367
-361.82155425039127,8.6000003814697266
-360.66275134756324,1.3999999761581421
-359.5041720283607,3.2000000476837158
-358.34581624803286,-1.2000000476837158
-357.18768396183805,4.5999999046325684
-356.02977512504185,4.4000000953674316
-354.87208969291896,2.7999999523162842
-353.71462762076044,5.1999998092651367
-352.55738886386462,2.5999999046325684
-351.400373377548,0.20000000298023224
-350.24358111712354,5.5999999046325684
-349.08701203792953,-0.40000000596046448
-347.93066609530615,7.4000000953674316
-346.77454324460632,2.7999999523162842
-345.61864344119567,1.2000000476837158
-344.46296664044894,5
-343.30751279775541,2.7999999523162842
-342.15228186851164,1.6000000238418579
-340.99727380812146,-0.60000002384185791
-339.84248857200873,3.2000000476837158
-338.68792611559365,7.5999999046325684
-337.53358639432554,7.4000000953674316
-336.37946936365006,0.800000011920929
-335.2255749790329,3
-334.07190319594883,4
-332.918453969869,8.6000003814697266
-331.76522725630093,1.6000000238418579
-330.61222301074304,0.800000011920929
-329.45944118871012,6.8000001907348633
-328.30688174573515,0.60000002384185791
-327.15454463734568,0.800000011920929
-326.00242981909287,5
-324.85053724653517,8.8000001907348633
-323.69886687524559,1.2000000476837158
-322.54741866080076,3
-321.39619255879552,-0.60000002384185791
-320.24518852482652,-2.2000000476837158
-319.09440651450677,0.800000011920929
-317.9438464834584,-2
-316.79350838731807,-1.3999999761581421
-315.64339218173154,9
-314.49349782234822,-1.6000000238418579
-313.34382526483751,2.2000000476837158
-312.19437446487791,-0.40000000596046448
-311.04514537814794,3
-309.89613796035519,-2.4000000953674316
-308.74735216720546,-2.5999999046325684
-307.59878795441546,6.1999998092651367
-306.45044527772006,3.7999999523162842
-305.30232409285418,3.4000000953674316
-304.1544243555727,-5.5999999046325684
-303.00674602163963,0.40000000596046448
-301.85928904682078,-0.800000011920929
-300.71205338690925,-2.7999999523162842
-299.56503899768541,-1.3999999761581421
-298.41824583496964,-2.7999999523162842
-297.27167385456596,5
-296.12532301230749,2.7999999523162842
-294.97919326402553,-4.4000000953674316
-293.83328456556956,5.4000000953674316
-292.6875968728,-5.1999998092651367
-291.54213014158267,-3
-290.39688432779803,4.1999998092651367
-289.25185938733557,1.7999999523162842
-288.10705527609389,2.5999999046325684
-286.96247194998614,0
-285.81810936493457,-1.3999999761581421
-284.67396747687235,5.1999998092651367
-283.53004624174173,2.5999999046325684
-282.38634561549406,-1.7999999523162842
-281.24286555409708,6
-280.09960601352395,-2.5999999046325684
-278.95656694976424,-1.2000000476837158
-277.81374831880566,5
-276.67115007666143,1.6000000238418579
-275.52877217934838,1.7999999523162842
-274.38661458289062,3.2000000476837158
-273.24467724332862,1.7999999523162842
-272.10296011671562,4
-270.961463159103,1.3999999761581421
-269.82018632656946,7.8000001907348633
-268.67912957519366,1.2000000476837158
-267.53829286106156,1.3999999761581421
-266.39767614028096,8.1999998092651367
-265.25727936895964,6.8000001907348633
-264.11710250322722,0.60000002384185791
-262.97714549921329,3.7999999523162842
-261.8374083130584,1.7999999523162842
-260.6978909009249,8.6000003814697266
-259.55859321897515,2.5999999046325684
-258.41951522338059,-0.40000000596046448
-257.28065687033632,9.1999998092651367
-256.14201811603016,0
-255.00359891667358,2.2000000476837158
-253.86539922848715,2.5999999046325684
-252.7274190076987,-0.20000000298023224
-251.58965821054153,4.5999999046325684
-250.45211679326894,-1.2000000476837158
-249.31479471214516,-0.40000000596046448
-248.17769192343076,8.6000003814697266
-247.04080838342088,-3.4000000953674316
-245.90414404839248,-0.800000011920929
-244.76769887465525,0.40000000596046448
-243.63147281852252,3.7999999523162842
-242.49546583631673,-5.1999998092651367
-241.35967788436938,-1.7999999523162842
-240.22410891902837,4.8000001907348633
-239.08875889664705,5.1999998092651367
-237.95362777358059,4.1999998092651367
-236.81871550621872,-8.1999998092651367
-235.6840220509439,3.5999999046325684
-234.54954736414584,-0.20000000298023224
-233.41529140224156,4.8000001907348633
-232.28125412163718,-1.3999999761581421
-231.14743547876969,1
-230.0138354300725,1.2000000476837158
-228.88045393199536,3.5999999046325684
-227.74729094100257,4.1999998092651367
-226.61434641355845,1.2000000476837158
-225.48162030614367,7.5999999046325684
-224.349112575248,1
-223.21682317737577,-2
-222.08475206903313,0.60000002384185791
-220.95289920674804,0.800000011920929
-219.82126454705212,6.5999999046325684
-218.68984804648244,-0.800000011920929
-217.5586496615997,7.1999998092651367
-216.427669348961,2
-215.29690706514521,1.3999999761581421
-214.16636276673125,0.40000000596046448
-213.03603641032169,5.5999999046325684
-211.90592795251541,-1.7999999523162842
-210.77603734992772,6.4000000953674316
-209.64636455919026,1.7999999523162842
-208.51690953693469,2.7999999523162842
-207.38767223980722,1.3999999761581421
-206.25865262447223,-2.7999999523162842
-205.12985064758868,7
-204.00126626584097,2.5999999046325684
-202.87289943590986,-2.7999999523162842
-201.74475011450158,0.60000002384185791
-200.61681825831874,3.7999999523162842
-199.48910382408758,0.20000000298023224
-198.36160676853797,2
-197.23432704840525,4
-196.10726462043749,-0.40000000596046448
-194.98041944140277,1.6000000238418579
-193.85379146806918,5.5999999046325684
-192.72738065721751,-0.40000000596046448
-191.6011869656395,-3.4000000953674316
-190.47521035013779,2.4000000953674316
-189.34945076753138,1.2000000476837158
-188.22390817463383,3.4000000953674316
-187.09858252828053,0.40000000596046448
-185.97347378531958,-3
-184.84858190259911,-0.20000000298023224
-183.72390683699086,-3.5999999046325684
-182.59944854536116,1.2000000476837158
-181.47520698460175,2
-180.35118211159897,5.5999999046325684
-179.22737388326641,0.40000000596046448
-178.1037822565213,9.1999998092651367
-176.9804071882827,2.5999999046325684
-175.85724863548785,3.2000000476837158
-174.73430655509037,9.6000003814697266
-173.61158090404206,9.6000003814697266
-172.48907163931108,10
-171.36677871787106,9.6000003814697266
-170.24470209671563,15
-169.12284173284024,12
-168.00119758325309,11.399999618530273
-166.8797696049769,15.199999809265137
-165.75855775503624,4.8000001907348633
-164.6375619904702,7.5999999046325684
-163.51678226832883,5.4000000953674316
-162.39621854567667,6.5999999046325684
-161.27587077957287,18.799999237060547
-160.15573892710927,10.399999618530273
-159.03582294536864,19.200000762939453
-157.91612279145556,13.399999618530273
-156.79663842247828,10.600000381469727
-155.67736979555957,7.8000001907348633
-154.55831686783313,10.600000381469727
-153.43947959643447,13.199999809265137
-152.32085793852275,6
-151.20245185125532,12.800000190734863
-150.08426129180589,12.600000381469727
-148.96628621735545,14.600000381469727
-147.84852658509953,13.399999618530273
-146.73098235223915,7.8000001907348633
-145.61365347598803,10.399999618530273
-144.49653991357081,18.200000762939453
-143.3796416222176,9
-142.26295855917488,14
-141.14649068169638,12.399999618530273
-140.03023794704677,10.399999618530273
-138.91420031250163,2
-137.79837773533836,6.8000001907348633
-136.68277017286164,11.199999809265137
-135.56737758237068,13.600000381469727
-134.45219992117563,17.200000762939453
-133.33723714661573,22.799999237060547
-132.22248921601567,28.600000381469727
-131.10795608672197,25.399999618530273
-129.99363771609387,31
-128.87953406149063,30.399999618530273
-127.76564508029878,36.200000762939453
-126.65197072989395,29.200000762939453
-125.53851096768085,25
-124.4252657510624,31
-123.31223503745423,29.600000381469727
-122.19941878428472,29
-121.08681694899133,29.200000762939453
-119.97442948901517,25.600000381469727
-118.8622563618228,21.200000762939453
-117.75029752487717,27.600000381469727
-116.63855293565393,32
-115.52702255164331,33
-114.41570633034462,35.400001525878906
-113.30460422925898,45
-112.19371620590573,44.599998474121094
-111.08304221782055,48.799999237060547
-109.97258222253549,55.200000762939453
-108.86233617759535,58.799999237060547
-107.75230404056492,57.599998474121094
-106.64248576901082,64.5999984741211
-105.53288132051239,63.200000762939453
-104.42349065265807,74.199996948242188
-103.31431372304178,74.5999984741211
-102.20535048927377,86
-101.09660090898069,88
-99.988064939780088,93.4000015258789
-98.879742539320432,113.80000305175781
-97.771633665246554,122.80000305175781
-96.6637382752142,127.59999847412109
-95.556056326899125,146.60000610351563
-94.448587777975263,149.39999389648438
-93.34133258613474,167
-92.234290709076959,194.19999694824219
-91.1274621045086,249.60000610351563
-90.020846730150879,301.39999389648438
-88.914444543732316,330.20001220703125
-87.808255502995962,306.79998779296875
-86.7022795656867,262
-85.596516689563941,253.19999694824219
-84.490966832401682,255.80000305175781
-83.385629951977535,266
-82.280506006080032,269.79998779296875
-81.175594952508618,265.20001220703125
-80.070896749077292,276
-78.966411353598232,273.39999389648438
-77.862138723905446,274.60000610351563
-76.7580788178384,278.60000610351563
-75.654231593249278,330.79998779296875
-74.550597007988472,357
-73.447175019935457,414
-72.3439655869679,461.20001220703125
-71.240968666974368,467.39999389648438
-70.138184217854359,443
-69.035612197516457,436.60000610351563
-67.933252563881979,471.39999389648438
-66.831105274881338,532.5999755859375
-65.7291702884504,581.5999755859375
-64.62744756254142,570.79998779296875
-63.525937055112081,519.79998779296875
-62.424638724134638,515.4000244140625
-61.323552527588618,565.79998779296875
-60.222678423459,702.5999755859375
-59.122016369747143,813.4000244140625
-58.02156632446713,874.5999755859375
-56.92132824563123,840.20001220703125
-55.821302091271718,751.79998779296875
-54.721487819426329,673.4000244140625
-53.621885388145529,558.4000244140625
-52.522494755494336,492.79998779296875
-51.423315879526854,477.20001220703125
-50.324348718333567,654.4000244140625
-49.225593230001323,1071.5999755859375
-48.12704937262788,1519
-47.028717104320094,1771
-45.930596383199372,1687.4000244140625
-44.832687167392578,1411.5999755859375
-43.734989415037489,1463
-42.637503084284617,1653.199951171875
-41.540228133289929,2042.5999755859375
-40.443164520223945,2232.800048828125
-39.346312203260823,2188.199951171875
-38.249671140592909,1991.199951171875
-37.153241290412552,1922
-36.057022610932108,2196
-34.961015060369391,2958.800048828125
-33.865218596949489,3659.39990234375
-32.769633178906588,3986.39990234375
-31.6742587644967,4422.2001953125
-30.579095311970377,5095.2001953125
-29.484142779594549,5952
-28.389401125643417,6225.2001953125
-27.29487030841301,5724.39990234375
-26.200550286193902,5072.7998046875
-25.106441017293037,4258.60009765625
-24.012542460020995,3548
-22.918854572712007,3017.199951171875
-21.82537731370212,2651.800048828125
-20.7321106413292,2250.199951171875
-19.639054513960218,1845.4000244140625
-18.546208889949412,1554.4000244140625
-17.453573727678304,1378.5999755859375
-16.361148985530235,1268.800048828125
-15.268934621899461,1197.4000244140625
-14.176930595191152,1088.199951171875
-13.085136863823209,1043.4000244140625
-11.993553386213534,994.20001220703125
-10.902180120801859,946.20001220703125
-9.8110170260297309,893.20001220703125
-8.720064060353252,856.5999755859375
-7.62932118223398,813.4000244140625
-6.5387883501425677,669.4000244140625
-5.448465522567858,428
-4.3583526579986938,184.60000610351563
-3.2684497149384697,81
-2.1787566519033135,128.80000305175781
-1.0892734274111717,137.60000610351563
0,141.39999389648438
1.0890636717958841,171
2.1779176294185163,432.79998779296875
3.266561914309932,676.4000244140625
4.354996567899434,827
5.443221631601773,914.4000244140625
6.5312371468298807,956.4000244140625
7.6190431549803179,988.5999755859375
8.7066396974460076,1067.800048828125
9.7940268156035017,1131
10.881204550825714,1210.199951171875
11.968172944472826,1292.4000244140625
13.054932037890467,1406.4000244140625
14.141481872427903,1586.4000244140625
15.227822489416212,1774.199951171875
16.313953930162825,2091.199951171875
17.399876235997,2590
18.485589448209794,3025.199951171875
19.571093608095907,3604
20.656388756942761,4161
21.74147493601231,5086.7998046875
22.826352186579243,6130.7998046875
23.911020549890964,7182
24.995480067191238,7860.2001953125
26.079730779716556,7950.7998046875
27.163772728685217,7133.60009765625
28.247605955324616,6104.39990234375
29.331230500825768,5601.7998046875
30.414646406390602,5117.2001953125
31.49785371319922,4508.7998046875
32.58085246243354,3370
33.663642695257295,2798
34.746224452830575,2813.39990234375
35.828597776289826,3096
36.910762706780588,3330.60009765625
37.992719285430212,3282.60009765625
39.074467553356953,2753.199951171875
40.156007551660878,2373.39990234375
41.237339321447507,2207.199951171875
42.318462903804175,2474.60009765625
43.39937833980548,2839.199951171875
44.48008567053148,2759
45.560584937029489,2144.199951171875
46.6408761803541,1416
47.720959441552623,912.79998779296875
48.80083476164873,818.4000244140625
49.880502181658812,887.20001220703125
50.9599617426029,1040.5999755859375
52.039213485481014,1253.199951171875
53.118257451287718,1393.5999755859375
54.197093680997568,1563.199951171875
55.275722215592396,1563.4000244140625
56.354143096026746,1460.5999755859375
57.432356363258805,1214
58.510362058235842,1007.4000244140625
59.588160221886938,994.5999755859375
60.665750895142992,1027.800048828125
61.743134118913076,1131.800048828125
62.820309934106263,1139
63.89727838161707,1075.800048828125
64.974039502334563,936.20001220703125
66.050593337131431,889
67.12693992687673,935.20001220703125
68.203079312430418,970.79998779296875
69.2790115346379,987.4000244140625
70.354736634337314,904.20001220703125
71.43025465235587,783.4000244140625
72.505565629522607,686.4000244140625
73.580669606635638,629
74.655566624502171,628
75.730256723907587,630.4000244140625
76.804739945639085,647
77.879016330462036,651
78.953085919145451,643.79998779296875
80.026948752434691,633.5999755859375
81.10060487107512,650.5999755859375
82.174054315803,641.20001220703125
83.247297127336424,682.20001220703125
84.320333346397092,773.20001220703125
85.39316301368126,829.4000244140625
86.465786169887,825
87.538202855701456,701
88.610413111804519,563.79998779296875
89.682416978852416,506.20001220703125
90.754214497510475,432.39999389648438
91.825805708424014,409.60000610351563
92.897190652229256,386.60000610351563
93.968369369558786,373.39999389648438
95.039341901027,347.79998779296875
96.110108287242838,312.79998779296875
97.180668568809779,296.39999389648438
98.251022786316753,265.79998779296875
99.321170980345414,242
100.39111319146468,230.80000305175781
101.46084946023984,207.19999694824219
102.53037982722162,210.19999694824219
103.59970433295166,202
104.66882301796431,205
105.73773592278485,201.19999694824219
106.8064430879258,190.60000610351563
107.87494455389424,185.19999694824219
108.94324036118269,161
110.01133055028004,157.60000610351563
111.07921516166243,138.60000610351563
112.1468942357933,142.19999694824219
113.21436781313787,131
114.28163593413956,114
115.3486986392345,112
116.41555596884973,113.19999694824219
117.48220796341775,109
118.54865466334195,102.59999847412109
119.61489610901845,108
120.68093234084154,103
121.74676339919642,108.80000305175781
122.81238932445376,119
123.87781015697874,114.40000152587891
124.94302593711836,136.80000305175781
126.00803670522509,142
127.07284250162593,145.60000610351563
128.13744336665695,130
129.20183934062334,107.59999847412109
130.26603046383752,93.4000015258789
131.33001677659377,79.5999984741211
132.3937983191845,74
133.4573751318876,62.799999237060547
134.52074725496641,50.400001525878906
135.58391472868425,61.200000762939453
136.6468775932899,51
137.70963588902487,52.200000762939453
138.77218965612155,44
139.83453893480146,56.200000762939453
140.89668376527698,53.400001525878906
141.95862418775323,47.400001525878906
143.02036024241897,50.799999237060547
144.0818919694666,59
145.14321940906302,59.599998474121094
146.20434260137881,61
147.26526158656816,54.599998474121094
148.32597640478161,58.200000762939453
149.38648709615154,55.599998474121094
150.4467937008103,56.799999237060547
151.50689625887571,45.799999237060547
152.5667948104583,58
153.62648939565406,59
154.68598005455897,75.5999984741211
155.74526682725445,88.5999984741211
156.8043497538074,85.4000015258789
157.86322887428469,76.4000015258789
158.9219042287441,53.799999237060547
159.98037585721977,56.200000762939453
161.03864379975494,50
162.096708096371,53.799999237060547
163.15456878708392,51
164.21222591190417,70.800003051757813
165.2696795108277,78.199996948242188
166.32692962384135,84.800003051757813
167.38397629092287,83.4000015258789
168.4408195520482,81.199996948242188
169.4974594471696,74.199996948242188
170.55389601624302,56.799999237060547
171.61012929921162,42.599998474121094
172.66615933600406,35.799999237060547
173.7219861665435,29.399999618530273
174.7776098307495,33.799999237060547
175.83303036851612,20.399999618530273
176.88824781974836,20.600000381469727
177.94326222432755,15.800000190734863
178.99807362213323,24
180.05268205302673,20.200000762939453
181.10708755687847,15.199999809265137
182.16129017352432,25.399999618530273
183.21528994280743,7
184.26908690456366,16.200000762939453
185.32268109860706,17
186.37607256475167,10.800000190734863
187.42926134280606,12.800000190734863
188.482247472557,18
189.53503099378759,14.800000190734863
190.58761194627914,14.800000190734863
191.63999036979294,14
192.692166304083,18.399999618530273
193.7441397888997,14.800000190734863
194.79591086397886,16.399999618530273
195.8474795690563,18
196.89884594384057,17
197.95001002804929,19.200000762939453
199.00097186138009,23.600000381469727
200.05173148352878,21.200000762939453
201.10228893417116,18.799999237060547
202.15264425298847,11.800000190734863
203.2027974796365,13.199999809265137
204.25274865377651,19.799999237060547
205.30249781504972,19.200000762939453
206.35204500309737,12.399999618530273
207.4013902575407,16
208.45053361800274,15.199999809265137
209.49947512409562,12.600000381469727
210.54821481540785,11.399999618530273
211.59675273154062,16.200000762939453
212.64508891206788,22
213.69322339656719,17.799999237060547
214.74115622459976,16.399999618530273
215.78888743571224,20.200000762939453
216.83641706946219,32
217.88374516537988,35.200000762939453
218.93087176298468,27.200000762939453
219.97779690180323,30.600000381469727
221.02452062133852,32.599998474121094
222.0710429610881,22.799999237060547
223.11736396054403,28.600000381469727
224.16348365918566,21.200000762939453
225.2094020964887,21
226.25511931190886,18.799999237060547
227.3006353449,17.600000381469727
228.34595023491056,18.399999618530273
229.39106402137622,13.800000190734863
230.43597674371449,10.800000190734863
231.48068844134468,15.800000190734863
232.52519915367702,3.7999999523162842
233.569508920109,17.200000762939453
234.61361778002538,10.800000190734863
235.65752577281455,14.800000190734863
236.70123293784127,19.399999618530273
237.74473931446664,20.200000762939453
238.78804494204451,17
239.83114985991779,12
240.87405410742394,18.600000381469727
241.91675772388407,11.399999618530273
242.95926074861745,12.199999809265137
244.00156322093062,7.8000001907348633
245.04366518011921,12.800000190734863
246.08556666547338,6.4000000953674316
247.12726771627604,10.600000381469727
248.16876837179188,9.1999998092651367
249.21006867128381,12
250.25116865401105,5.1999998092651367
251.29206835920559,12.600000381469727
252.33276782611392,4
253.37326709395347,9.1999998092651367
254.41356620194165,6.4000000953674316
255.45366518928495,6.1999998092651367
256.49356409518441,1.3999999761581421
257.53326295883016,16
258.57276181939596,7.4000000953674316
259.61206071605739,10.399999618530273
260.65115968797545,8.1999998092651367
261.69005877429845,12.800000190734863
262.72875801417831,15.600000381469727
263.76725744674513,6.1999998092651367
264.80555711111992,9.3999996185302734
265.84365704643096,9.8000001907348633
266.88155729177379,14.600000381469727
267.91925788625122,14.600000381469727
268.95675886895515,13.199999809265137
269.99406027896839,4.5999999046325684
271.03116215535192,10.199999809265137
272.06806453717945,5.1999998092651367
273.10476746349923,11.199999809265137
274.14127097334858,5
275.17757510577758,8.3999996185302734
276.21367989980354,2
277.24958539444378,7.8000001907348633
278.28529162870836,11.600000381469727
279.32079864159641,2.5999999046325684
280.35610647209614,14.800000190734863
281.39121515919214,4.8000001907348633
282.42612474185262,12.199999809265137
283.46083525904578,14.399999618530273
284.49534674972347,7.4000000953674316
285.52965925283388,7
286.56377280730703,14.199999809265137
287.59768745207475,10.199999809265137
288.63140322605432,14
289.66492016815391,8.6000003814697266
290.6982383172799,9.3999996185302734
291.73135771231318,1.7999999523162842
292.76427839214739,2.5999999046325684
293.79700039564887,6.1999998092651367
294.82952376168032,4.8000001907348633
295.86184852910264,12.399999618530273
296.89397473676581,4.5999999046325684
297.92590242349979,2.4000000953674316
298.95763162813637,1.2000000476837158
299.9891623894946,8
301.02049474638625,9.1999998092651367
302.05162873761219,7.8000001907348633
303.082564401966,2.7999999523162842
304.1133017782322,2.5999999046325684
305.14384090518251,1.6000000238418579
306.1741818215869,1
307.20432456620438,4.1999998092651367
308.23426917777579,4.1999998092651367
309.26401569504924,6.4000000953674316
310.29356415674738,13.600000381469727
311.32291460160013,10.399999618530273
312.35206706831377,7.4000000953674316
313.38102159559276,11
314.40977822213063,5.1999998092651367
315.43833698661547,7.8000001907348633
316.46669792772627,7.4000000953674316
317.49486108412748,11.399999618530273
318.52282649447989,15.800000190734863
319.55059419743338,15.800000190734863
320.5781642316324,25
321.60553663570317,26.799999237060547
322.63271144827559,36.799999237060547
323.65968870795768,56.799999237060547
324.68646845335934,64
325.71305072307769,69
326.73943555570077,70.5999984741211
327.76562298980934,66.800003051757813
328.79161306396782,64.5999984741211
329.81740581674421,54.200000762939453
330.84300128668838,37.400001525878906
331.86839951234651,26.200000762939453
332.89360053224482,11.800000190734863
333.9186043849204,11.399999618530273
334.9434111088849,7
335.96802074264451,6.1999998092651367
336.9924333247036,7.1999998092651367
338.016648893552,5
339.04066748766672,5.4000000953674316
340.06448914552857,8.8000001907348633
341.08811390559458,-1.7999999523162842
342.11154180632184,-5.8000001907348633
343.13477288616014,4.8000001907348633
344.15780718354108,0
345.1806447368981,7.1999998092651367
346.20328558465189,-0.20000000298023224
347.22572976520678,7.5999999046325684
348.24797731697436,-1.7999999523162842
349.2700282783444,-1.7999999523162842
350.29188268769758,4
351.3135405834164,2
352.3350020038597,2.4000000953674316
353.35626698739179,2
354.37733557236061,1.2000000476837158
355.39820779711044,6.4000000953674316
356.41888369996741,4.4000000953674316
357.43936331925579,-1.7999999523162842
358.4596466932926,3.4000000953674316
359.47973386038029,-1
360.4996248588177,0.800000011920929
361.51931972688908,5.1999998092651367
362.53881850287689,5.1999998092651367
363.55812122505267,1.3999999761581421
364.57722793167341,3.2000000476837158
365.59613866099608,2.2000000476837158
366.61485345126675,1
367.63337234071332,-1
368.65169536756548,6.8000001907348633
369.66982257004383,-0.20000000298023224
370.68775398635444,4.5999999046325684
371.70548965469789,0.20000000298023224
372.7230296132675,3.7999999523162842
373.74037390024205,-0.800000011920929
374.75752255379666,-8.1999998092651367
375.7744756120992,0.800000011920929
376.79123311330659,2.2000000476837158
377.80779509556305,0
378.82416159700733,0.20000000298023224
379.84033265577273,5.5999999046325684
380.856308309978,1.2000000476837158
381.87208859774,10.399999618530273
382.88767355716118,3
383.90306322633296,1.3999999761581421
384.918257643345,0.40000000596046448
385.933256846276,3
386.94806087319375,4
387.96266976215884,0.40000000596046448
388.97708355122268,-2.4000000953674316
389.99130227842943,1.2000000476837158
391.005325981816,-0.60000002384185791
392.01915469940104,0.60000002384185791
393.03278846921057,-4.4000000953674316
394.04622732924145,3.2000000476837158
395.05947131750145,3.5999999046325684
396.072520471982,3.5999999046325684
397.08537483066175,2.4000000953674316
398.09803443151395,5.1999998092651367
399.11049931250454,-1
400.12276951158856,3.5999999046325684
401.13484506671739,7.5999999046325684
402.14672601582424,-3.4000000953674316
403.15841239684596,3.5999999046325684
404.16990424769574,8.3999996185302734
405.18120160629041,0
406.19230451053772,3.7999999523162842
407.20321299832722,6.5999999046325684
408.21392710754844,-5.5999999046325684
409.22444687608004,6.4000000953674316
410.2347723417879,3.7999999523162842
411.24490354253794,-1.3999999761581421
412.25484051617786,6
413.26458330055357,7.1999998092651367
414.27413193350003,-1.2000000476837158
415.28348645284314,3.5999999046325684
416.29264689639967,4
417.30161330197734,4.5999999046325684
418.310385707382,-4
419.31896415039773,2.7999999523162842
420.327348668814,2.7999999523162842
421.33553930040034,-1.3999999761581421
422.34353608292622,2.5999999046325684
423.35133905414659,8.3999996185302734
424.35894825181094,2.5999999046325684
425.366363713656,4.8000001907348633
426.37358547742224,2.7999999523162842
427.38061358082268,-1
428.38744806157592,4.4000000953674316
429.39408895738779,0.800000011920929
430.40053630595321,4
431.40679014495618,5.8000001907348633
432.41285051209161,-1.3999999761581421
433.41871744501259,7.1999998092651367
434.42439098139221,11
435.42987115888172,-0.60000002384185791
436.43515801512694,4.5999999046325684
437.4402515877664,-3.4000000953674316
438.44515191442224,7
439.44985903272209,7.1999998092651367
440.45437298026809,4
441.45869379467149,3.2000000476837158
442.4628215135217,9.6000003814697266
443.46675617440451,6.5999999046325684
444.47049781489659,9.1999998092651367
445.47404647256735,4.8000001907348633
446.47740218497347,-4.8000001907348633
447.480564989668,12
448.483534924193,4.5999999046325684
449.48631202608703,12.399999618530273
450.48889633286853,7.5999999046325684
451.49128788205962,4.4000000953674316
452.49348671116604,5.8000001907348633
453.49549285768262,4.1999998092651367
454.49730635911328,5.4000000953674316
455.49892725292921,2.4000000953674316
456.50035557661067,1.2000000476837158
457.50159136762159,4.8000001907348633
458.50263466341676,-0.20000000298023224
459.503485501451,0
460.50414391915729,6.1999998092651367
461.50460995397043,6.1999998092651367
462.5048836433125,9.8000001907348633
463.50496502460373,9.1999998092651367
464.50485413524257,4.1999998092651367
465.50455101262742,8.8000001907348633
466.50405569415489,12.399999618530273
467.50336821719429,18
468.50248861912587,15.199999809265137
469.50141693731166,14.800000190734863
470.50015320910279,19.200000762939453
471.49869747185039,27.600000381469727
472.49704976288922,15.399999618530273
473.49521011955221,17.600000381469727
474.49317857915776,12
475.49095517901515,15.600000381469727
476.48853995643731,6.5999999046325684
477.48593294871353,6.5999999046325684
478.48313419313126,3.7999999523162842
479.48014372697253,7.8000001907348633
480.47696158750477,4.8000001907348633
481.47358781198818,7.4000000953674316
482.47002243768111,6
483.46626550182373,-1
484.46231704165621,6.4000000953674316
485.45817709440053,1.7999999523162842
486.45384569728049,2.7999999523162842
487.44932288750715,9.6000003814697266
488.44460870228249,3.4000000953674316
489.43970317880303,-1.2000000476837158
490.4346063542489,0
491.42931826580025,5
492.4238389506263,5
493.41816844588539,3.7999999523162842
494.41230678873217,-6.5999999046325684
495.40625401630859,6.5999999046325684
496.40001016574752,5
497.39357527418179,9
498.3869493787206,4.5999999046325684
499.3801325164859,2
500.37312472456688,-1.3999999761581421
501.36592604006182,0.60000002384185791
502.35853650005447,1.7999999523162842
503.35095614162128,6.5999999046325684
504.34318500183144,9.1999998092651367
505.33522311774323,-4.5999999046325684
506.32707052640581,1.6000000238418579
507.3187272648629,-1.3999999761581421
508.31019337014914,4.8000001907348633
509.30146887928822,7.1999998092651367
510.29255382930023,-2.7999999523162842
511.28344825719068,2.5999999046325684
512.27415219996328,0.40000000596046448
513.26466569460717,2.7999999523162842
514.25498877810969,3.4000000953674316
515.24512148744543,-0.800000011920929
516.23506385957626,0.800000011920929
517.22481593147131,5.4000000953674316
518.214377740067,0
519.20374932231425,0
520.19293071514585,-0.40000000596046448
521.18192195548909,1.7999999523162842
522.17072308025308,3.5999999046325684
523.15933412635422,6.5999999046325684
524.14775513068525,2.7999999523162842
525.13598613014619,12.600000381469727
526.12402716160977,0.40000000596046448
527.11187826196146,6.5999999046325684
528.09953946806127,2.2000000476837158
529.08701081677282,2.5999999046325684
530.07429234493793,6.1999998092651367
531.06138408940751,0
532.048286087007,6
533.03499837456729,4.5999999046325684
534.0215209889011,5.4000000953674316
535.00785396682113,9.6000003814697266
535.99399734512008,9.3999996185302734
536.97995116059792,2
537.965715450031,-0.40000000596046448
538.95129025019924,9.1999998092651367
539.93667559786809,3.5999999046325684
540.921871529792,1.3999999761581421
541.90687808272924,2.7999999523162842
542.89169529341052,-4.5999999046325684
543.87632319857767,5.8000001907348633
544.86076183495788,6.4000000953674316
545.84501123925838,1
546.82907144819546,-1.7999999523162842
547.8129424984636,5
548.7966244267609,2.7999999523162842
549.78011726976547,-2
550.76342106415723,1
551.74653584660155,2
552.7294616537547,0
553.71219852227114,0
554.69474648879077,4.4000000953674316
555.677105589948,6.8000001907348633
556.65927586237194,7.8000001907348633
557.64125734267327,1
558.62305006746465,3.4000000953674316
559.604654073346,1.7999999523162842
560.58606939691163,7
561.56729607475063,2.4000000953674316
562.54833414342647,6.8000001907348633
563.5291836395154,2.7999999523162842
564.50984459957726,1.2000000476837158
565.490317060161,-1
566.4706010578102,14
567.450696629061,5.4000000953674316
568.43060381044052,7.1999998092651367
569.41032263846137,7.1999998092651367
570.38985314963975,13.399999618530273
571.36919538047732,23.200000762939453
572.348349367463,15.199999809265137
573.32731514708939,11
574.30609275582538,10.800000190734863
575.28468223014534,3.5999999046325684
576.26308360651274,3.7999999523162842
577.24129692136921,0.20000000298023224
578.219322211171,-1.6000000238418579
579.197159512345,4.4000000953674316
580.17480886132762,3.5999999046325684
581.15227029453308,1.6000000238418579
582.12954384837394,7
583.10662955925181,2.2000000476837158
584.08352746356286,1.2000000476837158
585.06023759769778,8.6000003814697266
586.03675999802908,-2
587.01309470092929,8.6000003814697266
587.98924174276181,6.4000000953674316
588.965201159881,5.8000001907348633
589.940972988632,2.5999999046325684
590.916557265351,6.4000000953674316
591.89195402637051,-2
592.86716330800846,5.4000000953674316
593.84218514657914,8
594.81701957839141,5
595.79166663973774,1.6000000238418579
596.76612636690516,6
597.74039879617885,5.4000000953674316
598.71448396382948,4.5999999046325684
599.68838190611859,3.2000000476837158
600.66209265930229,10.199999809265137
601.63561625963666,-0.800000011920929
602.60895274334871,3.7999999523162842
603.58210214668,4.5999999046325684
604.55506450584653,2.2000000476837158
605.52783985706992,9
606.50042823655167,-5.1999998092651367
607.472829680497,6.1999998092651367
608.44504422508908,8.1999998092651367
609.41707190651687,1.2000000476837158
610.38891276095092,3
611.36056682456,12
612.332034133502,2
613.3033147239239,1
614.2744086319708,11.800000190734863
615.24531589377693,3.5999999046325684
616.216036545462,12
617.18657062315287,9.6000003814697266
618.15691816295475,7.4000000953674316
619.12707920096727,2.4000000953674316
620.09705377328282,7.8000001907348633
621.06684191599379,-0.60000002384185791
622.03644366517074,5.8000001907348633
623.0058590568824,4
623.97508812719207,0.60000002384185791
624.94413091215029,3.4000000953674316
625.912987447804,4
626.88165777019094,7.1999998092651367
627.85014191533446,6.1999998092651367
628.81843991925962,6.1999998092651367
629.78655181797694,0.60000002384185791
630.75447764748969,4.5999999046325684
631.72221744379385,7.8000001907348633
632.68977124288176,3.2000000476837158
633.65713908072576,2.7999999523162842
634.62432099330545,10.399999618530273
635.59131701657861,2
636.55812718650486,6.5999999046325684
637.52475153902742,5.5999999046325684
638.49119011009134,1.7999999523162842
639.45744293562529,1
640.42351005155251,7.8000001907348633
641.38939149379257,5.1999998092651367
642.355087298245,3.7999999523162842
643.32059750081135,5.5999999046325684
644.28592213738557,2
645.25106124385456,6.8000001907348633
646.216014856087,0.20000000298023224
647.18078300994785,-3
648.1453657413058,0.60000002384185791
649.10976308600038,6
650.07397507988208,8
651.03800175878678,-0.60000002384185791
652.00184315853767,7.1999998092651367
652.96549931495247,3
653.92897026384526,-1.7999999523162842
654.89225604101739,-5.8000001907348633
655.85535668226476,4.4000000953674316
656.81827222337415,8
657.78100270012328,-2
658.74354814828257,7
659.70590860361335,5.4000000953674316
660.66808410187514,1
661.63007467881289,2.5999999046325684
662.59188037016247,5.5999999046325684
663.55350121165611,2.2000000476837158
664.514937239017,-2
665.47618848796083,6.5999999046325684
666.4372549941927,6.5999999046325684
667.39813679341023,-0.60000002384185791
668.35883392130745,9
669.31934641356565,-6
670.27967430585886,3.2000000476837158
671.23981763385382,2.2000000476837158
672.19977643321,6.8000001907348633
673.15955073957775,14.199999809265137
674.119140588602,5.4000000953674316
675.07854601591134,1.2000000476837158
676.03776705714154,4
676.99680374790478,6.4000000953674316
677.95565612381506,-0.60000002384185791
678.91432422047183,6.4000000953674316
679.87280807347634,7.5999999046325684
680.83110771841166,4.5999999046325684
681.78922319085541,8.3999996185302734
682.74715452638156,-2.7999999523162842
683.70490176055318,2.7999999523162842
684.66246492892424,9.1999998092651367
