-777.74687133807856,4
-776.50770429765,1
-775.26877705141487,6.1999998092651367
-774.03008955063888,6.1999998092651367
-772.79164174658763,-8.6000003814697266
-771.55343359055223,2.5999999046325684
-770.31546503381287,-3
-769.07773602767884,-2.5999999046325684
-767.8402465234667,8
-766.60299647250758,1.6000000238418579
-765.36598582614351,0
-764.12921453572744,-0.20000000298023224
-762.89268255262323,4.8000001907348633
-761.65638982821292,-4.5999999046325684
-760.42033631388222,-0.40000000596046448
-759.184521961035,-4.5999999046325684
-757.948946721086,3.4000000953674316
-756.71361054546833,1.6000000238418579
-755.47851338560758,-8.6000003814697266
-754.24365519296589,8
-753.009035918998,-3.2000000476837158
-751.77465551518071,2.7999999523162842
-750.5405139330087,1
-749.30661112396592,5.4000000953674316
-748.0729470395836,1
-746.8395216313711,1.2000000476837158
-745.60633485086328,-3.5999999046325684
-744.3733866496168,-0.20000000298023224
-743.14067697918108,3
-741.90820579113461,-0.800000011920929
-740.67597303705952,0.40000000596046448
-739.44397866855252,-3.7999999523162842
-738.21222263721756,0
-736.98070489468046,3.5999999046325684
-735.749425392567,4.1999998092651367
-734.51838408252479,-2
-733.28758091621239,3
-732.057015845292,-4.4000000953674316
-730.82668882144753,-2.2000000476837158
-729.59659979637036,-4
-728.366748721759,-1.7999999523162842
-727.13713554934475,1.3999999761581421
-725.90776023084072,5.5999999046325684
-724.67862271799277,-0.800000011920929
-723.449722962554,0.40000000596046448
-722.22106091628848,0.60000002384185791
-720.99263653096386,3.2000000476837158
-719.76444975838785,1.7999999523162842
-718.53650055034268,1.7999999523162842
-717.308788858647,0.60000002384185791
-716.08131463512655,-0.20000000298023224
-714.85407783161827,-2.5999999046325684
-713.62707839996983,0.40000000596046448
-712.40031629203258,-1
-711.17379145969062,-2.7999999523162842
-709.94750385482075,-1.2000000476837158
-708.72145342932527,3.2000000476837158
-707.49564013510644,3.2000000476837158
-706.27006392408839,-1.7999999523162842
-705.04472474819522,2.5999999046325684
-703.81962255938379,0.60000002384185791
-702.59475730959639,-4
-701.3701289508117,8
-700.14573743500478,-1.3999999761581421
-698.9215827141652,1.2000000476837158
-697.69766474030075,5.5999999046325684
-696.47398346541922,-1.3999999761581421
-695.25053884156114,1.7999999523162842
-694.02733082075611,4.5999999046325684
-692.80435935505557,-0.40000000596046448
-691.58162439652915,1.7999999523162842
-690.35912589724649,4
-689.13686380929175,-4.4000000953674316
-687.91483808476733,-5.4000000953674316
-686.69304867578649,5.4000000953674316
-685.47149553447343,-1
-684.25017861295237,5
-683.02909786337659,-0.800000011920929
-681.80825323790668,1
-680.5876446887105,-7.5999999046325684
-679.3672721679668,1.2000000476837158
-678.14713562787256,-1.2000000476837158
-676.92723502063564,2
-675.70757029846391,-4.4000000953674316
-674.48814141360162,0.60000002384185791
-673.26894831827849,-2
-672.04999096475331,0.20000000298023224
-670.83126930528488,3.7999999523162842
-669.61278329215747,-3.2000000476837158
-668.39453287765537,-1
-667.176518014081,-2
-665.95873865374051,-4.1999998092651367
-664.7411947489727,1.7999999523162842
-663.5238862520946,-8.1999998092651367
-662.30681311546687,2.7999999523162842
-661.0899752914429,0.40000000596046448
-659.87337273240155,-1.6000000238418579
-658.6570053907144,7.8000001907348633
-657.44087321878942,-0.60000002384185791
-656.22497616902,3.4000000953674316
-655.009314193836,-1.3999999761581421
-653.79388724565979,-6.4000000953674316
-652.57869527693947,4.1999998092651367
-651.363738240123,-1.2000000476837158
-650.14901608768014,2.2000000476837158
-648.93452877208438,-5.8000001907348633
-647.720276245831,1
-646.5062584614152,-2.5999999046325684
-645.29247537135416,3.5999999046325684
-644.078926928165,-0.800000011920929
-642.86561308439377,0
-641.65253379257956,-4.1999998092651367
-640.43968900529035,3.2000000476837158
-639.22707867508689,0.40000000596046448
-638.01470275456631,1.6000000238418579
-636.80256119630758,1.2000000476837158
-635.590653952926,-2
-634.37898097704056,0.20000000298023224
-633.16754222128111,3
-631.95633763828118,-3.4000000953674316
-630.745367180707,1.6000000238418579
-629.534630801214,0
-628.32412845248655,-3
-627.11386008720547,6.1999998092651367
-625.9038256580734,0.800000011920929
-624.69402511780754,-2.7999999523162842
-623.48445841912508,6.4000000953674316
-622.27512551476138,-0.40000000596046448
-621.0660263574664,1.7999999523162842
-619.85716089999733,-5
-618.64852909512592,6.5999999046325684
-617.44013089563123,0
-616.2319662543141,0
-615.0240351239645,-4
-613.81633745741237,-4.4000000953674316
-612.60887320749134,0
-611.40164232702409,-1.6000000238418579
-610.194644768877,4.5999999046325684
-608.98788048590177,-4.1999998092651367
-607.781349430983,0.60000002384185791
-606.57505155700892,2
-605.36898681687126,-0.20000000298023224
-604.1631551634764,5.4000000953674316
-602.95755654975983,-2.7999999523162842
-601.75219092864245,2
-600.54705825307065,-3.5999999046325684
-599.34215847600535,5
-598.13749155041478,-6.4000000953674316
-596.93305742927441,1
-595.72885606557793,-3.4000000953674316
-594.52488741232992,-1.2000000476837158
-593.32115142254224,-4
-592.117648049245,0.40000000596046448
-590.91437724546449,-5.8000001907348633
-589.71133896426,0
-588.50853315869062,2.2000000476837158
-587.30595978182646,-3
-586.10361878675576,-0.60000002384185791
-584.90151012657043,-6.4000000953674316
-583.69963375437328,-5
-582.49798962329442,4.8000001907348633
-581.296577686453,-3.7999999523162842
-580.09539789699556,1.7999999523162842
-578.894450208074,3.5999999046325684
-577.69373457285474,-0.20000000298023224
-576.4932509445116,-0.40000000596046448
-575.29299927623651,6.5999999046325684
-574.09297952122142,0.800000011920929
-572.89319163268192,-2.4000000953674316
-571.69363556384451,-2.4000000953674316
-570.49431126793752,-4.1999998092651367
-569.29521869820383,-2.4000000953674316
-568.09635780790632,0
-566.89772855030969,4
-565.69933087869686,-0.20000000298023224
-564.50116474635433,0.20000000298023224
-563.30323010658867,-1.2000000476837158
-562.1055269127155,2
-560.90805511805775,0
-559.710814675951,0.60000002384185791
-558.513805539751,-2.4000000953674316
-557.31702766280978,0.60000002384185791
-556.12048099851017,-3.2000000476837158
-554.92416550022062,-6.4000000953674316
-553.72808112134589,-4.4000000953674316
-552.53222781529075,-2.7999999523162842
-551.33660553547088,-6.5999999046325684
-550.14121423531651,1.7999999523162842
-548.94605386826515,0.40000000596046448
-547.75112438777614,-2.2000000476837158
-546.55642574730518,0.20000000298023224
-545.361957900328,-2.5999999046325684
-544.167720800333,1.6000000238418579
-542.97371440082134,-2.7999999523162842
-541.77993865529243,0.40000000596046448
-540.58639351727652,1
-539.39307894030026,-1.2000000476837158
-538.19999487790665,-0.800000011920929
-537.00714128365507,1
-535.81451811110674,0.60000002384185791
-534.622125313841,-1.3999999761581421
-533.42996284544643,-1.7999999523162842
-532.23803065952234,-4.8000001907348633
-531.04632870968271,-0.20000000298023224
-529.85485694955059,0.40000000596046448
-528.66361533275631,-1
-527.47260381295564,-2.7999999523162842
-526.28182234379165,5.1999998092651367
-525.09127087894194,-7.4000000953674316
-523.90094937208778,6.8000001907348633
-522.71085777691223,-0.800000011920929
-521.52099604712748,-3.7999999523162842
-520.33136413644206,1.6000000238418579
-519.14196199858088,-1.6000000238418579
-517.95278958728341,-4.1999998092651367
-516.76384685629819,0.800000011920929
-515.57513375937924,1
-514.38665025030423,-8.3999996185302734
-513.19839628285263,0.800000011920929
-512.01037181081665,2.5999999046325684
-510.82257678800124,2.2000000476837158
-509.63501116822226,-3.7999999523162842
-508.44767490530649,6.5999999046325684
-507.26056795309523,-0.40000000596046448
-506.07369026543893,-6.4000000953674316
-504.88704179619526,1.6000000238418579
-503.70062249923831,-1
-502.51443232845486,-2.2000000476837158
-501.32847123773354,-1.2000000476837158
-500.14273918098661,-6
-498.95723611213,-4.5999999046325684
-497.77196198509228,1.6000000238418579
-496.58691675381124,-1.6000000238418579
-495.40210037224642,-6.1999998092651367
-494.21751279435375,1.3999999761581421
-493.03315397410915,-2.7999999523162842
-491.84902386549584,-1.7999999523162842
-490.665122422517,-3.5999999046325684
-489.48144959917408,-3.7999999523162842
-488.29800534949027,0
-487.11478962749243,0.20000000298023224
-485.93180238722562,3.7999999523162842
-484.74904358273852,2.7999999523162842
-483.5665131681053,-2.4000000953674316
-482.38421109738738,-1.6000000238418579
-481.2021373246771,-7.1999998092651367
-480.0202918040759,-2.5999999046325684
-478.83867448969067,-7.5999999046325684
-477.65728533564106,-6.8000001907348633
-476.47612429605579,0
-475.2951913250854,-4.5999999046325684
-474.11448637687681,-2.7999999523162842
-472.93400940559695,-7
-471.75376036542184,1.3999999761581421
-470.57373921054023,-3
-469.39394589515177,-2.2000000476837158
-468.21438037346343,2.2000000476837158
-467.03504259970032,-6.8000001907348633
-465.8559325280894,-2
-464.67705011287944,-5.1999998092651367
-463.49839530831923,-3.7999999523162842
-462.31996806867937,-1.6000000238418579
-461.14176834823775,-1.7999999523162842
-459.96379610127588,-3.2000000476837158
-458.78605128210074,-3.7999999523162842
-457.60853384501752,0
-456.43124374435138,2.2000000476837158
-455.25418093443295,-4.4000000953674316
-454.07734536960925,-6
-452.90073700422909,0.800000011920929
-451.7243557926613,-4.8000001907348633
-450.54820168928381,-3.5999999046325684
-449.37227464848911,0.20000000298023224
-448.19657462467148,-9.1999998092651367
-447.02110157224524,0.800000011920929
-445.84585544562833,1.6000000238418579
-444.67083619925324,-2.5999999046325684
-443.49604378757067,-6
-442.32147816503129,-6
-441.14713928610036,-7
-439.97302710525764,-2.7999999523162842
-438.79914157698659,-5.1999998092651367
-437.62548265579426,3.7999999523162842
-436.45205029618774,-4.5999999046325684
-435.27884445268865,-4.8000001907348633
-434.10586507982771,3.2000000476837158
-432.93311213215566,-1.2000000476837158
-431.76058556421776,0
-430.58828533058477,8.6000003814697266
-429.41621138583832,-3.2000000476837158
-428.24436368456008,-2.4000000953674316
-427.07274218135353,-5.4000000953674316
-425.90134683082943,-2.4000000953674316
-424.73017758760216,-8
-423.55923440631159,-2
-422.38851724159576,-4.4000000953674316
-421.21802604811455,-5
-420.04776078052782,-1.6000000238418579
-418.87772139351546,-1.6000000238418579
-417.70790784176643,-5.1999998092651367
-416.53832007998062,-1.3999999761581421
-415.36895806286157,-0.20000000298023224
-414.19982174513279,1.6000000238418579
-413.03091108152512,-1.2000000476837158
-411.86222602678754,-5.8000001907348633
-410.69376653566542,4.4000000953674316
-409.52553256292776,-4.1999998092651367
-408.35752406334905,-9.1999998092651367
-407.18974099171828,1
-406.02218330282813,3.4000000953674316
-404.85485095149124,0.800000011920929
-403.68774389253122,-4.4000000953674316
-402.5208620807698,-7.4000000953674316
-401.35420547105241,-4.4000000953674316
-400.18777401823172,-5.4000000953674316
-399.02156767717497,-1
-397.85558640275485,0
-396.68983014985315,-4.5999999046325684
-395.52429887336984,-6.1999998092651367
-394.35899252820855,1.3999999761581421
-393.1939110692947,-3.2000000476837158
-392.02905445155375,1.6000000238418579
-390.8644226299275,-4
-389.70001555936324,-9.3999996185302734
-388.53583319482641,-3
-387.37187549128976,-5
-386.20814240373875,-5.4000000953674316
-385.04463388716613,-5.8000001907348633
-383.8813498965792,-11.399999618530273
-382.71829038699252,-0.800000011920929
-381.55545531343887,0.40000000596046448
-380.392844630951,-8
-379.23045829458351,-5.8000001907348633
-378.06829625939463,1.2000000476837158
-376.90635848045895,-0.800000011920929
-375.74464491285289,-0.800000011920929
-374.58315551167289,-0.60000002384185791
-373.42189023202263,-8.6000003814697266
-372.26084902901857,-8
-371.10003185778623,-2.2000000476837158
-369.93943867346024,-3.4000000953674316
-368.77906943119342,-15.199999809265137
-367.61892408613858,-8
-366.45900259346672,0.40000000596046448
-365.29930490835977,-7.5999999046325684
-364.13983098601057,-7.8000001907348633
-362.98058078161557,2.4000000953674316
-361.82155425039127,-4.1999998092651367
-360.66275134756324,-4.5999999046325684
-359.5041720283607,-8.8000001907348633
-358.34581624803286,-2.2000000476837158
-357.18768396183805,-2.7999999523162842
-356.02977512504185,-3.2000000476837158
-354.87208969291896,-3.7999999523162842
-353.71462762076044,-5.8000001907348633
-352.55738886386462,4.1999998092651367
-351.400373377548,-6.5999999046325684
-350.24358111712354,-2.4000000953674316
-349.08701203792953,-4.4000000953674316
-347.93066609530615,1.7999999523162842
-346.77454324460632,-9
-345.61864344119567,0.60000002384185791
-344.46296664044894,-7.8000001907348633
-343.30751279775541,-9.8000001907348633
-342.15228186851164,0
-340.99727380812146,-12.800000190734863
-339.84248857200873,-4.4000000953674316
-338.68792611559365,-2.4000000953674316
-337.53358639432554,0
-336.37946936365006,-1.7999999523162842
-335.2255749790329,-1.2000000476837158
-334.07190319594883,-7.5999999046325684
-332.918453969869,-8
-331.76522725630093,-2
-330.61222301074304,-8
-329.45944118871012,-4.1999998092651367
-328.30688174573515,-6.5999999046325684
-327.15454463734568,-1.2000000476837158
-326.00242981909287,-3.7999999523162842
-324.85053724653517,0.20000000298023224
-323.69886687524559,-6
-322.54741866080076,-3.7999999523162842
-321.39619255879552,-6.5999999046325684
-320.24518852482652,-11.399999618530273
-319.09440651450677,-1.7999999523162842
-317.9438464834584,-2.4000000953674316
-316.79350838731807,-8.3999996185302734
-315.64339218173154,-0.800000011920929
-314.49349782234822,-3.2000000476837158
-313.34382526483751,-7.4000000953674316
-312.19437446487791,-9
-311.04514537814794,-3.2000000476837158
-309.89613796035519,-6.5999999046325684
-308.74735216720546,-6.5999999046325684
-307.59878795441546,-1.2000000476837158
-306.45044527772006,-5.4000000953674316
-305.30232409285418,-8.6000003814697266
-304.1544243555727,-6.4000000953674316
-303.00674602163963,-7.8000001907348633
-301.85928904682078,-1.6000000238418579
-300.71205338690925,-11.399999618530273
-299.56503899768541,-7.8000001907348633
-298.41824583496964,-7
-297.27167385456596,-4.5999999046325684
-296.12532301230749,-6.8000001907348633
-294.97919326402553,-10
-293.83328456556956,-3.4000000953674316
-292.6875968728,-11.800000190734863
-291.54213014158267,-10.600000381469727
-290.39688432779803,-5.5999999046325684
-289.25185938733557,-4.8000001907348633
-288.10705527609389,-5.8000001907348633
-286.96247194998614,-4
-285.81810936493457,-3.7999999523162842
-284.67396747687235,-3.4000000953674316
-283.53004624174173,-7.1999998092651367
-282.38634561549406,-1.6000000238418579
-281.24286555409708,-2.2000000476837158
-280.09960601352395,-6.5999999046325684
-278.95656694976424,-5.5999999046325684
-277.81374831880566,-5.1999998092651367
-276.67115007666143,-3.2000000476837158
-275.52877217934838,-6.1999998092651367
-274.38661458289062,-2.5999999046325684
-273.24467724332862,-10.800000190734863
-272.10296011671562,0.20000000298023224
-270.961463159103,-6.4000000953674316
-269.82018632656946,-3.7999999523162842
-268.67912957519366,-6.8000001907348633
-267.53829286106156,-6.8000001907348633
-266.39767614028096,-4
-265.25727936895964,-9.6000003814697266
-264.11710250322722,0
-262.97714549921329,-6.5999999046325684
-261.8374083130584,-4
-260.6978909009249,-1.6000000238418579
-259.55859321897515,-5
-258.41951522338059,-3.2000000476837158
-257.28065687033632,0.20000000298023224
-256.14201811603016,-10.399999618530273
-255.00359891667358,-1.7999999523162842
-253.86539922848715,-2.7999999523162842
-252.7274190076987,-7.5999999046325684
-251.58965821054153,-2.2000000476837158
-250.45211679326894,-7.4000000953674316
-249.31479471214516,-4.4000000953674316
-248.17769192343076,1.2000000476837158
-247.04080838342088,-9.1999998092651367
-245.90414404839248,-13
-244.76769887465525,-7.8000001907348633
-243.63147281852252,-11.600000381469727
-242.49546583631673,-11.399999618530273
-241.35967788436938,-7
-240.22410891902837,-2
-239.08875889664705,-7.1999998092651367
-237.95362777358059,-3.7999999523162842
-236.81871550621872,-8.8000001907348633
-235.6840220509439,-4.8000001907348633
-234.54954736414584,-7.1999998092651367
-233.41529140224156,-6.1999998092651367
-232.28125412163718,-7.4000000953674316
-231.14743547876969,-7.8000001907348633
-230.0138354300725,-0.800000011920929
-228.88045393199536,-8.6000003814697266
-227.74729094100257,-1.7999999523162842
-226.61434641355845,-7.4000000953674316
-225.48162030614367,-6.1999998092651367
-224.349112575248,-6.5999999046325684
-223.21682317737577,-10.600000381469727
-222.08475206903313,-4.4000000953674316
-220.95289920674804,-8.6000003814697266
-219.82126454705212,-2
-218.68984804648244,-7.4000000953674316
-217.5586496615997,-4
-216.427669348961,-7.8000001907348633
-215.29690706514521,-6.5999999046325684
-214.16636276673125,-10.399999618530273
-213.03603641032169,-10.399999618530273
-211.90592795251541,-8.6000003814697266
-210.77603734992772,-8
-209.64636455919026,-7.1999998092651367
-208.51690953693469,1.3999999761581421
-207.38767223980722,-10.199999809265137
-206.25865262447223,-8.3999996185302734
-205.12985064758868,-4
-204.00126626584097,-3.4000000953674316
-202.87289943590986,-8.3999996185302734
-201.74475011450158,-12
-200.61681825831874,-7.8000001907348633
-199.48910382408758,-4.1999998092651367
-198.36160676853797,-6.8000001907348633
-197.23432704840525,-6.5999999046325684
-196.10726462043749,-10.199999809265137
-194.98041944140277,-3.5999999046325684
-193.85379146806918,-4.1999998092651367
-192.72738065721751,-6.4000000953674316
-191.6011869656395,-9.6000003814697266
-190.47521035013779,-7.4000000953674316
-189.34945076753138,-4.1999998092651367
-188.22390817463383,-5.1999998092651367
-187.09858252828053,-7.5999999046325684
-185.97347378531958,-9
-184.84858190259911,-0.20000000298023224
-183.72390683699086,-3.7999999523162842
-182.59944854536116,-3.2000000476837158
-181.47520698460175,-12.600000381469727
-180.35118211159897,-2.7999999523162842
-179.22737388326641,-9.1999998092651367
-178.1037822565213,-3.2000000476837158
-176.9804071882827,-7
-175.85724863548785,-4.8000001907348633
-174.73430655509037,-4.5999999046325684
-173.61158090404206,-5.5999999046325684
-172.48907163931108,-7.5999999046325684
-171.36677871787106,-3.2000000476837158
-170.24470209671563,-5.1999998092651367
-169.12284173284024,-2.5999999046325684
-168.00119758325309,-4.4000000953674316
-166.8797696049769,-2.5999999046325684
-165.75855775503624,-7.4000000953674316
-164.6375619904702,-3
-163.51678226832883,-4.1999998092651367
-162.39621854567667,-8
-161.27587077957287,-1.7999999523162842
-160.15573892710927,-3.2000000476837158
-159.03582294536864,-3.7999999523162842
-157.91612279145556,0.20000000298023224
-156.79663842247828,-7.8000001907348633
-155.67736979555957,-5
-154.55831686783313,-1
-153.43947959643447,-1
-152.32085793852275,-8.8000001907348633
-151.20245185125532,3.5999999046325684
-150.08426129180589,-6.5999999046325684
-148.96628621735545,-0.40000000596046448
-147.84852658509953,-0.800000011920929
-146.73098235223915,-1.3999999761581421
-145.61365347598803,-4.4000000953674316
-144.49653991357081,-1
-143.3796416222176,-1.7999999523162842
-142.26295855917488,-4
-141.14649068169638,-1.3999999761581421
-140.03023794704677,-7.4000000953674316
-138.91420031250163,-12.399999618530273
-137.79837773533836,-3
-136.68277017286164,-4
-135.56737758237068,-4.8000001907348633
-134.45219992117563,-2
-133.33723714661573,-3.7999999523162842
-132.22248921601567,-0.40000000596046448
-131.10795608672197,-0.60000002384185791
-129.99363771609387,-5
-128.87953406149063,1.2000000476837158
-127.76564508029878,0.60000002384185791
-126.65197072989395,1.3999999761581421
-125.53851096768085,-0.40000000596046448
-124.4252657510624,1.6000000238418579
-123.31223503745423,-2.7999999523162842
-122.19941878428472,1.3999999761581421
-121.08681694899133,-3.2000000476837158
-119.97442948901517,-2
-118.8622563618228,-8.6000003814697266
-117.75029752487717,-1.2000000476837158
-116.63855293565393,3
-115.52702255164331,-1.2000000476837158
-114.41570633034462,-0.40000000596046448
-113.30460422925898,-0.60000002384185791
-112.19371620590573,7.8000001907348633
-111.08304221782055,3.7999999523162842
-109.97258222253549,9
-108.86233617759535,9.3999996185302734
-107.75230404056492,-0.800000011920929
-106.64248576901082,10
-105.53288132051239,2.4000000953674316
-104.42349065265807,14.800000190734863
-103.31431372304178,5.1999998092651367
-102.20535048927377,15.800000190734863
-101.09660090898069,12.800000190734863
-99.988064939780088,15.600000381469727
-98.879742539320432,24.399999618530273
-97.771633665246554,18.600000381469727
-96.6637382752142,23.399999618530273
-95.556056326899125,32.599998474121094
-94.448587777975263,26.600000381469727
-93.34133258613474,40.200000762939453
-92.234290709076959,39
-91.1274621045086,65
-90.020846730150879,67.4000015258789
-88.914444543732316,78.4000015258789
-87.808255502995962,67.199996948242188
-86.7022795656867,52.799999237060547
-85.596516689563941,61.200000762939453
-84.490966832401682,52.599998474121094
-83.385629951977535,57.599998474121094
-82.280506006080032,53.200000762939453
-81.175594952508618,57.400001525878906
-80.070896749077292,58.599998474121094
-78.966411353598232,54
-77.862138723905446,56
-76.7580788178384,63.200000762939453
-75.654231593249278,70.5999984741211
-74.550597007988472,81.800003051757813
-73.447175019935457,92.800003051757813
-72.3439655869679,105.59999847412109
-71.240968666974368,108.59999847412109
-70.138184217854359,106
-69.035612197516457,111.59999847412109
-67.933252563881979,119.19999694824219
-66.831105274881338,135.39999389648438
-65.7291702884504,150.60000610351563
-64.62744756254142,129.39999389648438
-63.525937055112081,118.80000305175781
-62.424638724134638,120.40000152587891
-61.323552527588618,144.60000610351563
-60.222678423459,178.19999694824219
-59.122016369747143,199.39999389648438
-58.02156632446713,218.80000305175781
-56.92132824563123,190.60000610351563
-55.821302091271718,195.80000305175781
-54.721487819426329,162.39999389648438
-53.621885388145529,133.19999694824219
-52.522494755494336,125.19999694824219
-51.423315879526854,127.59999847412109
-50.324348718333567,186.80000305175781
-49.225593230001323,319.20001220703125
-48.12704937262788,423.20001220703125
-47.028717104320094,444.20001220703125
-45.930596383199372,421
-44.832687167392578,371.39999389648438
-43.734989415037489,392.20001220703125
-42.637503084284617,437.39999389648438
-41.540228133289929,527.4000244140625
-40.443164520223945,567
-39.346312203260823,530.79998779296875
-38.249671140592909,456
-37.153241290412552,452.20001220703125
-36.057022610932108,519.5999755859375
-34.961015060369391,720.4000244140625
-33.865218596949489,880.79998779296875
-32.769633178906588,959.79998779296875
-31.6742587644967,1155.4000244140625
-30.579095311970377,1411.5999755859375
-29.484142779594549,1728
-28.389401125643417,1839.800048828125
-27.29487030841301,1721
-26.200550286193902,1515.4000244140625
-25.106441017293037,1237
-24.012542460020995,1013.4000244140625
-22.918854572712007,851
-21.82537731370212,711
-20.7321106413292,586
-19.639054513960218,468
-18.546208889949412,379.20001220703125
-17.453573727678304,338.39999389648438
-16.361148985530235,298
-15.268934621899461,278.39999389648438
-14.176930595191152,258
-13.085136863823209,257
-11.993553386213534,236.80000305175781
-10.902180120801859,226.60000610351563
-9.8110170260297309,209.19999694824219
-8.720064060353252,211.39999389648438
-7.62932118223398,190.80000305175781
-6.5387883501425677,165.60000610351563
-5.448465522567858,105.80000305175781
-4.3583526579986938,49.799999237060547
-3.2684497149384697,56.200000762939453
-2.1787566519033135,106.40000152587891
-1.0892734274111717,112
0,127
1.0890636717958841,48
2.1779176294185163,123
3.266561914309932,175.19999694824219
4.354996567899434,219.19999694824219
5.443221631601773,222
6.5312371468298807,242.80000305175781
7.6190431549803179,256.79998779296875
8.7066396974460076,267.39999389648438
9.7940268156035017,290.20001220703125
10.881204550825714,311
11.968172944472826,336.60000610351563
13.054932037890467,372.20001220703125
14.141481872427903,407.79998779296875
15.227822489416212,485.39999389648438
16.313953930162825,560
17.399876235997,734
18.485589448209794,893
19.571093608095907,1080.4000244140625
20.656388756942761,1328.4000244140625
21.74147493601231,1613
22.826352186579243,1995.4000244140625
23.911020549890964,2369.199951171875
24.995480067191238,2552.199951171875
26.079730779716556,2510.60009765625
27.163772728685217,2116.800048828125
28.247605955324616,1667.5999755859375
29.331230500825768,1480.4000244140625
30.414646406390602,1342.4000244140625
31.49785371319922,1169.4000244140625
32.58085246243354,852.4000244140625
33.663642695257295,709
34.746224452830575,730.5999755859375
35.828597776289826,810
36.910762706780588,903.79998779296875
37.992719285430212,901
39.074467553356953,768.5999755859375
40.156007551660878,660.4000244140625
41.237339321447507,622.4000244140625
42.318462903804175,694.20001220703125
43.39937833980548,787.4000244140625
44.48008567053148,775.79998779296875
45.560584937029489,639.79998779296875
46.6408761803541,433
47.720959441552623,262.60000610351563
48.80083476164873,219.80000305175781
49.880502181658812,251.39999389648438
50.9599617426029,294
52.039213485481014,349.39999389648438
53.118257451287718,376.20001220703125
54.197093680997568,426.79998779296875
55.275722215592396,437
56.354143096026746,419.20001220703125
57.432356363258805,333.20001220703125
58.510362058235842,262.20001220703125
59.588160221886938,250
60.665750895142992,272.60000610351563
61.743134118913076,303.39999389648438
62.820309934106263,317.60000610351563
63.89727838161707,298.79998779296875
64.974039502334563,270
66.050593337131431,240.60000610351563
67.12693992687673,249.39999389648438
68.203079312430418,268.20001220703125
69.2790115346379,273.20001220703125
70.354736634337314,230.19999694824219
71.43025465235587,203.39999389648438
72.505565629522607,171.60000610351563
73.580669606635638,162.19999694824219
74.655566624502171,152.60000610351563
75.730256723907587,165
76.804739945639085,156.60000610351563
77.879016330462036,174
78.953085919145451,176
80.026948752434691,167.80000305175781
81.10060487107512,184.19999694824219
82.174054315803,172
83.247297127336424,173.60000610351563
84.320333346397092,199.80000305175781
85.39316301368126,231
86.465786169887,231.19999694824219
87.538202855701456,199.80000305175781
88.610413111804519,145.80000305175781
89.682416978852416,132.60000610351563
90.754214497510475,104.80000305175781
91.825805708424014,100.40000152587891
92.897190652229256,98.4000015258789
93.968369369558786,95.199996948242188
95.039341901027,95
96.110108287242838,80.800003051757813
97.180668568809779,73.800003051757813
98.251022786316753,62.400001525878906
99.321170980345414,65.4000015258789
100.39111319146468,56
101.46084946023984,55.799999237060547
102.53037982722162,51.599998474121094
103.59970433295166,43.799999237060547
104.66882301796431,55.599998474121094
105.73773592278485,48.200000762939453
106.8064430879258,49.200000762939453
107.87494455389424,49.599998474121094
108.94324036118269,41
110.01133055028004,45.400001525878906
111.07921516166243,37
112.1468942357933,39
113.21436781313787,36.400001525878906
114.28163593413956,24.600000381469727
115.3486986392345,25.799999237060547
116.41555596884973,21.600000381469727
117.48220796341775,30.799999237060547
118.54865466334195,16.799999237060547
119.61489610901845,22.200000762939453
120.68093234084154,24.600000381469727
121.74676339919642,24
122.81238932445376,36.599998474121094
123.87781015697874,18.600000381469727
124.94302593711836,32.200000762939453
126.00803670522509,38.799999237060547
127.07284250162593,38.200000762939453
128.13744336665695,37.599998474121094
129.20183934062334,30
130.26603046383752,27.200000762939453
131.33001677659377,18.600000381469727
132.3937983191845,21
133.4573751318876,17
134.52074725496641,0.800000011920929
135.58391472868425,15.399999618530273
136.6468775932899,9.8000001907348633
137.70963588902487,10.800000190734863
138.77218965612155,12.399999618530273
139.83453893480146,12.199999809265137
140.89668376527698,19.799999237060547
141.95862418775323,9.1999998092651367
143.02036024241897,11.199999809265137
144.0818919694666,12.800000190734863
145.14321940906302,12.399999618530273
146.20434260137881,23
147.26526158656816,15.600000381469727
148.32597640478161,17.799999237060547
149.38648709615154,14.399999618530273
150.4467937008103,20.200000762939453
151.50689625887571,18.200000762939453
152.5667948104583,13.399999618530273
153.62648939565406,12.199999809265137
154.68598005455897,24.799999237060547
155.74526682725445,24.600000381469727
156.8043497538074,22
157.86322887428469,23.799999237060547
158.9219042287441,15.800000190734863
159.98037585721977,20.200000762939453
161.03864379975494,12.800000190734863
162.096708096371,19.799999237060547
163.15456878708392,9.1999998092651367
164.21222591190417,27.399999618530273
165.2696795108277,15.600000381469727
166.32692962384135,29.799999237060547
167.38397629092287,25.799999237060547
168.4408195520482,30.200000762939453
169.4974594471696,15.399999618530273
170.55389601624302,10.199999809265137
171.61012929921162,7.8000001907348633
172.66615933600406,6.8000001907348633
173.7219861665435,8.1999998092651367
174.7776098307495,8.8000001907348633
175.83303036851612,-1
176.88824781974836,1.6000000238418579
177.94326222432755,4.4000000953674316
178.99807362213323,4.8000001907348633
180.05268205302673,1.2000000476837158
181.10708755687847,0.800000011920929
182.16129017352432,4
183.21528994280743,-2.2000000476837158
184.26908690456366,1.6000000238418579
185.32268109860706,4
186.37607256475167,1
187.42926134280606,2
188.482247472557,0.20000000298023224
189.53503099378759,-0.20000000298023224
190.58761194627914,0.40000000596046448
191.63999036979294,1.6000000238418579
192.692166304083,2
193.7441397888997,-0.20000000298023224
194.79591086397886,-4
195.8474795690563,5.5999999046325684
196.89884594384057,0
197.95001002804929,0.800000011920929
199.00097186138009,2
200.05173148352878,-2.4000000953674316
201.10228893417116,-1.7999999523162842
202.15264425298847,0
203.2027974796365,8.1999998092651367
204.25274865377651,0.60000002384185791
205.30249781504972,6
206.35204500309737,-2.4000000953674316
207.4013902575407,1.2000000476837158
208.45053361800274,-3.5999999046325684
209.49947512409562,0.40000000596046448
210.54821481540785,-12.600000381469727
211.59675273154062,-4.5999999046325684
212.64508891206788,8
213.69322339656719,-1.7999999523162842
214.74115622459976,5
215.78888743571224,0.800000011920929
216.83641706946219,7.1999998092651367
217.88374516537988,9
218.93087176298468,4.4000000953674316
219.97779690180323,12
221.02452062133852,2
222.0710429610881,8
223.11736396054403,3.7999999523162842
224.16348365918566,7.1999998092651367
225.2094020964887,2.5999999046325684
226.25511931190886,7.1999998092651367
227.3006353449,0.60000002384185791
228.34595023491056,9.3999996185302734
229.39106402137622,0.60000002384185791
230.43597674371449,4.1999998092651367
231.48068844134468,-2
232.52519915367702,-2.7999999523162842
233.569508920109,1.6000000238418579
234.61361778002538,2.5999999046325684
235.65752577281455,1.2000000476837158
236.70123293784127,2.5999999046325684
237.74473931446664,2.5999999046325684
238.78804494204451,7.5999999046325684
239.83114985991779,1.7999999523162842
240.87405410742394,6.4000000953674316
241.91675772388407,1.6000000238418579
242.95926074861745,-0.60000002384185791
244.00156322093062,-1.7999999523162842
245.04366518011921,2.2000000476837158
246.08556666547338,5.4000000953674316
247.12726771627604,6.1999998092651367
248.16876837179188,3.7999999523162842
249.21006867128381,1.2000000476837158
250.25116865401105,-0.800000011920929
251.29206835920559,3.5999999046325684
252.33276782611392,-4
253.37326709395347,-0.60000002384185791
254.41356620194165,0.800000011920929
255.45366518928495,-6.8000001907348633
256.49356409518441,-3.2000000476837158
257.53326295883016,4.4000000953674316
258.57276181939596,1
259.61206071605739,-3
260.65115968797545,3
261.69005877429845,-0.800000011920929
262.72875801417831,3.5999999046325684
263.76725744674513,-2.7999999523162842
264.80555711111992,0
265.84365704643096,-2
266.88155729177379,1.3999999761581421
267.91925788625122,2.2000000476837158
268.95675886895515,4.8000001907348633
269.99406027896839,2.7999999523162842
271.03116215535192,0.40000000596046448
272.06806453717945,-4
273.10476746349923,3.5999999046325684
274.14127097334858,-0.60000002384185791
275.17757510577758,2.2000000476837158
276.21367989980354,1.6000000238418579
277.24958539444378,5.4000000953674316
278.28529162870836,0.800000011920929
279.32079864159641,-1.3999999761581421
280.35610647209614,3.7999999523162842
281.39121515919214,1
282.42612474185262,1.2000000476837158
283.46083525904578,5.4000000953674316
284.49534674972347,3
285.52965925283388,-3.2000000476837158
286.56377280730703,7.4000000953674316
287.59768745207475,0.40000000596046448
288.63140322605432,1.3999999761581421
289.66492016815391,7
290.6982383172799,1.6000000238418579
291.73135771231318,3.2000000476837158
292.76427839214739,-7.4000000953674316
293.79700039564887,-0.40000000596046448
294.82952376168032,-0.40000000596046448
295.86184852910264,8.3999996185302734
296.89397473676581,3
297.92590242349979,4.5999999046325684
298.95763162813637,-7.4000000953674316
299.9891623894946,4
301.02049474638625,6.8000001907348633
302.05162873761219,1.2000000476837158
303.082564401966,-10.399999618530273
304.1133017782322,-3
305.14384090518251,1.2000000476837158
306.1741818215869,-5.1999998092651367
307.20432456620438,4
308.23426917777579,6
309.26401569504924,0.60000002384185791
310.29356415674738,4.8000001907348633
311.32291460160013,2
312.35206706831377,-6.1999998092651367
313.38102159559276,8
314.40977822213063,-8.1999998092651367
315.43833698661547,2.4000000953674316
316.46669792772627,1.6000000238418579
317.49486108412748,1.6000000238418579
318.52282649447989,5
319.55059419743338,3.4000000953674316
320.5781642316324,7.4000000953674316
321.60553663570317,7
322.63271144827559,2.7999999523162842
323.65968870795768,18.399999618530273
324.68646845335934,21.799999237060547
325.71305072307769,18.399999618530273
326.73943555570077,18.600000381469727
327.76562298980934,23.600000381469727
328.79161306396782,20
329.81740581674421,18
330.84300128668838,8.3999996185302734
331.86839951234651,5.5999999046325684
332.89360053224482,-5
333.9186043849204,0.40000000596046448
334.9434111088849,5.1999998092651367
335.96802074264451,-2.4000000953674316
336.9924333247036,7.8000001907348633
338.016648893552,3.4000000953674316
339.04066748766672,3.4000000953674316
340.06448914552857,0.60000002384185791
341.08811390559458,1.7999999523162842
342.11154180632184,-1.6000000238418579
343.13477288616014,-0.60000002384185791
344.15780718354108,-4.8000001907348633
345.1806447368981,3
346.20328558465189,-1.7999999523162842
347.22572976520678,-3.2000000476837158
348.24797731697436,0.20000000298023224
349.2700282783444,0
350.29188268769758,0.20000000298023224
351.3135405834164,-1.3999999761581421
352.3350020038597,-1.6000000238418579
353.35626698739179,5.4000000953674316
354.37733557236061,-4.5999999046325684
355.39820779711044,0.60000002384185791
356.41888369996741,-1.7999999523162842
357.43936331925579,4.5999999046325684
358.4596466932926,-3.5999999046325684
359.47973386038029,1.6000000238418579
360.4996248588177,0
361.51931972688908,-0.800000011920929
362.53881850287689,-4.1999998092651367
363.55812122505267,-3
364.57722793167341,-3
365.59613866099608,-2.4000000953674316
366.61485345126675,0.40000000596046448
367.63337234071332,-0.40000000596046448
368.65169536756548,7.1999998092651367
369.66982257004383,-5.5999999046325684
370.68775398635444,-0.800000011920929
371.70548965469789,-3.5999999046325684
372.7230296132675,1.7999999523162842
373.74037390024205,-0.40000000596046448
374.75752255379666,-4.8000001907348633
375.7744756120992,-4.5999999046325684
376.79123311330659,-2
377.80779509556305,1.2000000476837158
378.82416159700733,-2.7999999523162842
379.84033265577273,-1
380.856308309978,2
381.87208859774,5.4000000953674316
382.88767355716118,2
383.90306322633296,-0.800000011920929
384.918257643345,-6.1999998092651367
385.933256846276,5
386.94806087319375,-0.20000000298023224
387.96266976215884,-4
388.97708355122268,-7.1999998092651367
389.99130227842943,1.2000000476837158
391.005325981816,3.2000000476837158
392.01915469940104,2.7999999523162842
393.03278846921057,-6.5999999046325684
394.04622732924145,2.7999999523162842
395.05947131750145,2.5999999046325684
396.072520471982,5.4000000953674316
397.08537483066175,1.2000000476837158
398.09803443151395,-2
399.11049931250454,1.2000000476837158
400.12276951158856,0.800000011920929
401.13484506671739,2
402.14672601582424,-3
403.15841239684596,3
404.16990424769574,-0.20000000298023224
405.18120160629041,0
406.19230451053772,-0.40000000596046448
407.20321299832722,3.7999999523162842
408.21392710754844,-3
409.22444687608004,5.1999998092651367
410.2347723417879,2.7999999523162842
411.24490354253794,-2.5999999046325684
412.25484051617786,3.7999999523162842
413.26458330055357,4.5999999046325684
414.27413193350003,1
415.28348645284314,0
416.29264689639967,6.5999999046325684
417.30161330197734,0.20000000298023224
418.310385707382,-3
419.31896415039773,2.7999999523162842
420.327348668814,3
421.33553930040034,-1.3999999761581421
422.34353608292622,4.4000000953674316
423.35133905414659,3.7999999523162842
424.35894825181094,2.5999999046325684
425.366363713656,2.4000000953674316
426.37358547742224,-1.3999999761581421
427.38061358082268,-1.6000000238418579
428.38744806157592,0.800000011920929
429.39408895738779,-4.8000001907348633
430.40053630595321,0.800000011920929
431.40679014495618,-1.7999999523162842
432.41285051209161,4.8000001907348633
433.41871744501259,7.8000001907348633
434.42439098139221,6.5999999046325684
435.42987115888172,1.6000000238418579
436.43515801512694,-2
437.4402515877664,-4.8000001907348633
438.44515191442224,4.1999998092651367
439.44985903272209,4
440.45437298026809,-0.800000011920929
441.45869379467149,2.7999999523162842
442.4628215135217,2.2000000476837158
443.46675617440451,-1.2000000476837158
444.47049781489659,3.7999999523162842
445.47404647256735,-1.2000000476837158
446.47740218497347,4.4000000953674316
447.480564989668,6.1999998092651367
448.483534924193,6.4000000953674316
449.48631202608703,7.8000001907348633
450.48889633286853,5.8000001907348633
451.49128788205962,-3.4000000953674316
452.49348671116604,-2
453.49549285768262,5
454.49730635911328,-2.2000000476837158
455.49892725292921,4
456.50035557661067,-0.800000011920929
457.50159136762159,4.5999999046325684
458.50263466341676,-3
459.503485501451,-5.8000001907348633
460.50414391915729,0.20000000298023224
461.50460995397043,4.1999998092651367
462.5048836433125,8.8000001907348633
463.50496502460373,3
464.50485413524257,3.4000000953674316
465.50455101262742,10.600000381469727
466.50405569415489,-4.1999998092651367
467.50336821719429,3.7999999523162842
468.50248861912587,11
469.50141693731166,-0.20000000298023224
470.50015320910279,10.399999618530273
471.49869747185039,11.399999618530273
472.49704976288922,-1.3999999761581421
473.49521011955221,5.8000001907348633
474.49317857915776,1.7999999523162842
475.49095517901515,5.1999998092651367
476.48853995643731,-2.2000000476837158
477.48593294871353,9.3999996185302734
478.48313419313126,5.1999998092651367
479.48014372697253,2.7999999523162842
480.47696158750477,5.5999999046325684
481.47358781198818,-0.40000000596046448
482.47002243768111,3.4000000953674316
483.46626550182373,-2.4000000953674316
484.46231704165621,1
485.45817709440053,-1
486.45384569728049,3.2000000476837158
487.44932288750715,6.1999998092651367
488.44460870228249,-1.6000000238418579
489.43970317880303,-1.3999999761581421
490.4346063542489,1.3999999761581421
491.42931826580025,2
492.4238389506263,9.6000003814697266
493.41816844588539,0.20000000298023224
494.41230678873217,-2.5999999046325684
495.40625401630859,-5
496.40001016574752,6.1999998092651367
497.39357527418179,3.5999999046325684
498.3869493787206,4.1999998092651367
499.3801325164859,3.4000000953674316
500.37312472456688,4.5999999046325684
501.36592604006182,-3
502.35853650005447,0.60000002384185791
503.35095614162128,-0.800000011920929
504.34318500183144,10.199999809265137
505.33522311774323,-2.5999999046325684
506.32707052640581,-3.7999999523162842
507.3187272648629,1.3999999761581421
508.31019337014914,1.7999999523162842
509.30146887928822,7.1999998092651367
510.29255382930023,0.800000011920929
511.28344825719068,0.40000000596046448
512.27415219996328,-1.7999999523162842
513.26466569460717,3.7999999523162842
514.25498877810969,10.199999809265137
515.24512148744543,-3
516.23506385957626,3
517.22481593147131,0
518.214377740067,1.3999999761581421
519.20374932231425,1.3999999761581421
520.19293071514585,1
521.18192195548909,-2.4000000953674316
522.17072308025308,2.5999999046325684
523.15933412635422,3.7999999523162842
524.14775513068525,1
525.13598613014619,6
526.12402716160977,1.6000000238418579
527.11187826196146,8.1999998092651367
528.09953946806127,1.7999999523162842
529.08701081677282,2.2000000476837158
530.07429234493793,4
531.06138408940751,-0.40000000596046448
532.048286087007,-1.3999999761581421
533.03499837456729,-3
534.0215209889011,1.6000000238418579
535.00785396682113,4.4000000953674316
535.99399734512008,4.4000000953674316
536.97995116059792,9.8000001907348633
537.965715450031,0
538.95129025019924,-0.800000011920929
539.93667559786809,6.1999998092651367
540.921871529792,-0.40000000596046448
541.90687808272924,5.5999999046325684
542.89169529341052,-0.40000000596046448
543.87632319857767,5.4000000953674316
544.86076183495788,8.6000003814697266
545.84501123925838,1.2000000476837158
546.82907144819546,4.1999998092651367
547.8129424984636,5.1999998092651367
548.7966244267609,0.60000002384185791
549.78011726976547,10.199999809265137
550.76342106415723,-3
551.74653584660155,6
552.7294616537547,0.60000002384185791
553.71219852227114,-0.40000000596046448
554.69474648879077,-1.3999999761581421
555.677105589948,5.5999999046325684
556.65927586237194,1.6000000238418579
557.64125734267327,2.2000000476837158
558.62305006746465,5.5999999046325684
559.604654073346,4.4000000953674316
560.58606939691163,3
561.56729607475063,4.4000000953674316
562.54833414342647,0
563.5291836395154,3
564.50984459957726,1.3999999761581421
565.490317060161,-5.5999999046325684
566.4706010578102,11
567.450696629061,2
568.43060381044052,3.2000000476837158
569.41032263846137,2.4000000953674316
570.38985314963975,5.8000001907348633
571.36919538047732,9.1999998092651367
572.348349367463,4.4000000953674316
573.32731514708939,-1.7999999523162842
574.30609275582538,4
575.28468223014534,5
576.26308360651274,-0.40000000596046448
577.24129692136921,-0.800000011920929
578.219322211171,7.4000000953674316
579.197159512345,3.5999999046325684
580.17480886132762,4
581.15227029453308,1.2000000476837158
582.12954384837394,-1.2000000476837158
583.10662955925181,-1.3999999761581421
584.08352746356286,3
585.06023759769778,2.7999999523162842
586.03675999802908,-1.2000000476837158
587.01309470092929,2.5999999046325684
587.98924174276181,0.800000011920929
588.965201159881,6.1999998092651367
589.940972988632,-5.4000000953674316
590.916557265351,2.7999999523162842
591.89195402637051,-2
592.86716330800846,-0.800000011920929
593.84218514657914,7.8000001907348633
594.81701957839141,-0.60000002384185791
595.79166663973774,3.2000000476837158
596.76612636690516,6.5999999046325684
597.74039879617885,2.2000000476837158
598.71448396382948,-3.5999999046325684
599.68838190611859,8.1999998092651367
600.66209265930229,1.2000000476837158
601.63561625963666,7
602.60895274334871,2.2000000476837158
603.58210214668,5.4000000953674316
604.55506450584653,4
605.52783985706992,-0.20000000298023224
606.50042823655167,-5.8000001907348633
607.472829680497,3.5999999046325684
608.44504422508908,5.1999998092651367
609.41707190651687,1.7999999523162842
610.38891276095092,-2
611.36056682456,8.6000003814697266
612.332034133502,1
613.3033147239239,2.2000000476837158
614.2744086319708,6.1999998092651367
615.24531589377693,2.7999999523162842
616.216036545462,1.3999999761581421
617.18657062315287,7.8000001907348633
618.15691816295475,8
619.12707920096727,5.4000000953674316
620.09705377328282,6.1999998092651367
621.06684191599379,1.3999999761581421
622.03644366517074,0.60000002384185791
623.0058590568824,5
623.97508812719207,0.40000000596046448
624.94413091215029,4
625.912987447804,-0.20000000298023224
626.88165777019094,4.8000001907348633
627.85014191533446,2.5999999046325684
628.81843991925962,2.7999999523162842
629.78655181797694,-1.3999999761581421
630.75447764748969,3.4000000953674316
631.72221744379385,2.5999999046325684
632.68977124288176,5.8000001907348633
633.65713908072576,1
634.62432099330545,0.60000002384185791
635.59131701657861,1
636.55812718650486,-1
637.52475153902742,5.8000001907348633
638.49119011009134,-1
639.45744293562529,3.4000000953674316
640.42351005155251,4.4000000953674316
641.38939149379257,3.4000000953674316
642.355087298245,0.20000000298023224
643.32059750081135,4.8000001907348633
644.28592213738557,2.4000000953674316
645.25106124385456,6.8000001907348633
646.216014856087,-1.6000000238418579
647.18078300994785,-1.7999999523162842
648.1453657413058,5.5999999046325684
649.10976308600038,-5.8000001907348633
650.07397507988208,5.1999998092651367
651.03800175878678,-0.20000000298023224
652.00184315853767,5.8000001907348633
652.96549931495247,7.5999999046325684
653.92897026384526,-3.5999999046325684
654.89225604101739,1.3999999761581421
655.85535668226476,2.5999999046325684
656.81827222337415,5.4000000953674316
657.78100270012328,0.60000002384185791
658.74354814828257,7.8000001907348633
659.70590860361335,0.800000011920929
660.66808410187514,-1.7999999523162842
661.63007467881289,6
662.59188037016247,4.1999998092651367
663.55350121165611,2.7999999523162842
664.514937239017,-3.4000000953674316
665.47618848796083,3.7999999523162842
666.4372549941927,5.4000000953674316
667.39813679341023,0.40000000596046448
668.35883392130745,6
669.31934641356565,-0.20000000298023224
670.27967430585886,0.40000000596046448
671.23981763385382,0.800000011920929
672.19977643321,6.5999999046325684
673.15955073957775,1.7999999523162842
674.119140588602,3.5999999046325684
675.07854601591134,2.7999999523162842
676.03776705714154,6
676.99680374790478,5
677.95565612381506,-2
678.91432422047183,2.7999999523162842
679.87280807347634,11.399999618530273
680.83110771841166,0
681.78922319085541,9.3999996185302734
682.74715452638156,-4.1999998092651367
683.70490176055318,4.5999999046325684
684.66246492892424,5
