-777.74687133807856,2.7999999523162842
-776.50770429765,1
-775.26877705141487,-5
-774.03008955063888,0
-772.79164174658763,-1.6000000238418579
-771.55343359055223,6
-770.31546503381287,1.3999999761581421
-769.07773602767884,-7.4000000953674316
-767.8402465234667,5
-766.60299647250758,-3.4000000953674316
-765.36598582614351,0.20000000298023224
-764.12921453572744,-2.2000000476837158
-762.89268255262323,3
-761.65638982821292,1.2000000476837158
-760.42033631388222,0.60000002384185791
-759.184521961035,-4
-757.948946721086,-3.4000000953674316
-756.71361054546833,-5.8000001907348633
-755.47851338560758,-6.1999998092651367
-754.24365519296589,2.7999999523162842
-753.009035918998,-6
-751.77465551518071,-1.7999999523162842
-750.5405139330087,3.2000000476837158
-749.30661112396592,0.20000000298023224
-748.0729470395836,3.2000000476837158
-746.8395216313711,-0.800000011920929
-745.60633485086328,-3
-744.3733866496168,-6.4000000953674316
-743.14067697918108,-1.6000000238418579
-741.90820579113461,-7.4000000953674316
-740.67597303705952,-3.2000000476837158
-739.44397866855252,0.40000000596046448
-738.21222263721756,-1.7999999523162842
-736.98070489468046,-3.7999999523162842
-735.749425392567,4.4000000953674316
-734.51838408252479,-2.4000000953674316
-733.28758091621239,-4.4000000953674316
-732.057015845292,-1.6000000238418579
-730.82668882144753,-1.7999999523162842
-729.59659979637036,-2
-728.366748721759,-3.2000000476837158
-727.13713554934475,2.5999999046325684
-725.90776023084072,2.5999999046325684
-724.67862271799277,-4.1999998092651367
-723.449722962554,0.20000000298023224
-722.22106091628848,-10
-720.99263653096386,2
-719.76444975838785,-5
-718.53650055034268,2.5999999046325684
-717.308788858647,-4.1999998092651367
-716.08131463512655,-5.8000001907348633
-714.85407783161827,-7
-713.62707839996983,-7.4000000953674316
-712.40031629203258,0.800000011920929
-711.17379145969062,-4.4000000953674316
-709.94750385482075,-1.2000000476837158
-708.72145342932527,-5.8000001907348633
-707.49564013510644,-3.2000000476837158
-706.27006392408839,-1.3999999761581421
-705.04472474819522,-0.60000002384185791
-703.81962255938379,-2.4000000953674316
-702.59475730959639,-2.4000000953674316
-701.3701289508117,-4.4000000953674316
-700.14573743500478,-3.2000000476837158
-698.9215827141652,-10.199999809265137
-697.69766474030075,-6.4000000953674316
-696.47398346541922,-0.40000000596046448
-695.25053884156114,-3.4000000953674316
-694.02733082075611,-4.1999998092651367
-692.80435935505557,-7.8000001907348633
-691.58162439652915,-3.4000000953674316
-690.35912589724649,-2.5999999046325684
-689.13686380929175,-6.1999998092651367
-687.91483808476733,-2
-686.69304867578649,-7
-685.47149553447343,-8
-684.25017861295237,-5.1999998092651367
-683.02909786337659,-0.800000011920929
-681.80825323790668,4
-680.5876446887105,-1.2000000476837158
-679.3672721679668,-6.1999998092651367
-678.14713562787256,-7.4000000953674316
-676.92723502063564,-3.7999999523162842
-675.70757029846391,-10.199999809265137
-674.48814141360162,-2
-673.26894831827849,-3.7999999523162842
-672.04999096475331,-4.5999999046325684
-670.83126930528488,-10
-669.61278329215747,1.7999999523162842
-668.39453287765537,-0.40000000596046448
-667.176518014081,-2
-665.95873865374051,-8.8000001907348633
-664.7411947489727,-13.800000190734863
-663.5238862520946,-0.60000002384185791
-662.30681311546687,-11.199999809265137
-661.0899752914429,-1.7999999523162842
-659.87337273240155,-6
-658.6570053907144,-4.1999998092651367
-657.44087321878942,-4.8000001907348633
-656.22497616902,-3.2000000476837158
-655.009314193836,-7.8000001907348633
-653.79388724565979,-10.399999618530273
-652.57869527693947,3.5999999046325684
-651.363738240123,-0.800000011920929
-650.14901608768014,-4.8000001907348633
-648.93452877208438,-1.2000000476837158
-647.720276245831,-8.8000001907348633
-646.5062584614152,-5.1999998092651367
-645.29247537135416,-1
-644.078926928165,-3
-642.86561308439377,0.800000011920929
-641.65253379257956,-10.399999618530273
-640.43968900529035,-8.1999998092651367
-639.22707867508689,-5.4000000953674316
-638.01470275456631,-3
-636.80256119630758,-10.399999618530273
-635.590653952926,-1
-634.37898097704056,-8.3999996185302734
-633.16754222128111,-7.5999999046325684
-631.95633763828118,-5.4000000953674316
-630.745367180707,-4.8000001907348633
-629.534630801214,-11.399999618530273
-628.32412845248655,-10.600000381469727
-627.11386008720547,-10.800000190734863
-625.9038256580734,-18.399999618530273
-624.69402511780754,-4.1999998092651367
-623.48445841912508,-9
-622.27512551476138,-6
-621.0660263574664,-5.1999998092651367
-619.85716089999733,-7.1999998092651367
-618.64852909512592,-4
-617.44013089563123,1.2000000476837158
-616.2319662543141,-3
-615.0240351239645,-10.800000190734863
-613.81633745741237,-7.1999998092651367
-612.60887320749134,-8.6000003814697266
-611.40164232702409,-8.3999996185302734
-610.194644768877,-9.6000003814697266
-608.98788048590177,-9
-607.781349430983,-2.5999999046325684
-606.57505155700892,-15.399999618530273
-605.36898681687126,-5.8000001907348633
-604.1631551634764,-8.6000003814697266
-602.95755654975983,-8.3999996185302734
-601.75219092864245,-11.800000190734863
-600.54705825307065,-4
-599.34215847600535,-7.4000000953674316
-598.13749155041478,-9
-596.93305742927441,-5
-595.72885606557793,-10.199999809265137
-594.52488741232992,1
-593.32115142254224,-3.7999999523162842
-592.117648049245,-7.4000000953674316
-590.91437724546449,-10.600000381469727
-589.71133896426,-11.600000381469727
-588.50853315869062,-9.1999998092651367
-587.30595978182646,-5.1999998092651367
-586.10361878675576,-9.6000003814697266
-584.90151012657043,-14.800000190734863
-583.69963375437328,-9.1999998092651367
-582.49798962329442,-12.600000381469727
-581.296577686453,-13.600000381469727
-580.09539789699556,-10.800000190734863
-578.894450208074,-10.399999618530273
-577.69373457285474,-4.5999999046325684
-576.4932509445116,-9.3999996185302734
-575.29299927623651,-8
-574.09297952122142,-5
-572.89319163268192,-10.600000381469727
-571.69363556384451,-6.4000000953674316
-570.49431126793752,-13
-569.29521869820383,-10.600000381469727
-568.09635780790632,-11.800000190734863
-566.89772855030969,-18.399999618530273
-565.69933087869686,-3.7999999523162842
-564.50116474635433,-3.4000000953674316
-563.30323010658867,-11
-562.1055269127155,-12
-560.90805511805775,-3.2000000476837158
-559.710814675951,-12
-558.513805539751,-10.600000381469727
-557.31702766280978,-11.199999809265137
-556.12048099851017,-10.800000190734863
-554.92416550022062,-15.399999618530273
-553.72808112134589,-15.199999809265137
-552.53222781529075,-5.5999999046325684
-551.33660553547088,-17.600000381469727
-550.14121423531651,-9.6000003814697266
-548.94605386826515,-7.4000000953674316
-547.75112438777614,-13.600000381469727
-546.55642574730518,-8.1999998092651367
-545.361957900328,-8.6000003814697266
-544.167720800333,-10.800000190734863
-542.97371440082134,-15
-541.77993865529243,-17
-540.58639351727652,-6.5999999046325684
-539.39307894030026,-13.399999618530273
-538.19999487790665,-14
-537.00714128365507,-11.199999809265137
-535.81451811110674,-7.4000000953674316
-534.622125313841,-12.800000190734863
-533.42996284544643,-12.800000190734863
-532.23803065952234,-13.199999809265137
-531.04632870968271,-14
-529.85485694955059,-14.600000381469727
-528.66361533275631,-9.6000003814697266
-527.47260381295564,-19.200000762939453
-526.28182234379165,-8.1999998092651367
-525.09127087894194,-13.399999618530273
-523.90094937208778,-13.600000381469727
-522.71085777691223,-6.4000000953674316
-521.52099604712748,-21.799999237060547
-520.33136413644206,-17
-519.14196199858088,-3.4000000953674316
-517.95278958728341,-15
-516.76384685629819,-8.3999996185302734
-515.57513375937924,-16.200000762939453
-514.38665025030423,-9.1999998092651367
-513.19839628285263,-13.800000190734863
-512.01037181081665,-18.799999237060547
-510.82257678800124,-9.8000001907348633
-509.63501116822226,-15.399999618530273
-508.44767490530649,-14.600000381469727
-507.26056795309523,-16.600000381469727
-506.07369026543893,-8
-504.88704179619526,-14.800000190734863
-503.70062249923831,-11.199999809265137
-502.51443232845486,-14.399999618530273
-501.32847123773354,-12.800000190734863
-500.14273918098661,-11.600000381469727
-498.95723611213,-17.799999237060547
-497.77196198509228,-10.600000381469727
-496.58691675381124,-14.600000381469727
-495.40210037224642,-15.199999809265137
-494.21751279435375,-8.6000003814697266
-493.03315397410915,-17.399999618530273
-491.84902386549584,-13.199999809265137
-490.665122422517,-14.800000190734863
-489.48144959917408,-17.799999237060547
-488.29800534949027,-10.600000381469727
-487.11478962749243,-16.200000762939453
-485.93180238722562,-17.399999618530273
-484.74904358273852,-13
-483.5665131681053,-12
-482.38421109738738,-19.600000381469727
-481.2021373246771,-11.800000190734863
-480.0202918040759,-10
-478.83867448969067,-13.399999618530273
-477.65728533564106,-10
-476.47612429605579,-11.399999618530273
-475.2951913250854,-6
-474.11448637687681,-16.600000381469727
-472.93400940559695,-16.399999618530273
-471.75376036542184,-18.399999618530273
-470.57373921054023,-10.399999618530273
-469.39394589515177,-11.600000381469727
-468.21438037346343,-18.600000381469727
-467.03504259970032,-14.199999809265137
-465.8559325280894,-19
-464.67705011287944,-17.200000762939453
-463.49839530831923,-23.399999618530273
-462.31996806867937,-15.600000381469727
-461.14176834823775,-10.199999809265137
-459.96379610127588,-16.399999618530273
-458.78605128210074,-15
-457.60853384501752,-17
-456.43124374435138,-21.799999237060547
-455.25418093443295,-19
-454.07734536960925,-23.399999618530273
-452.90073700422909,-24
-451.7243557926613,-24.399999618530273
-450.54820168928381,-17.200000762939453
-449.37227464848911,-21.399999618530273
-448.19657462467148,-18.399999618530273
-447.02110157224524,-23.200000762939453
-445.84585544562833,-11
-444.67083619925324,-17.799999237060547
-443.49604378757067,-19.799999237060547
-442.32147816503129,-19.799999237060547
-441.14713928610036,-25.200000762939453
-439.97302710525764,-21.399999618530273
-438.79914157698659,-16.600000381469727
-437.62548265579426,-20
-436.45205029618774,-23.799999237060547
-435.27884445268865,-16.600000381469727
-434.10586507982771,-22
-432.93311213215566,-16.399999618530273
-431.76058556421776,-22.799999237060547
-430.58828533058477,-24.399999618530273
-429.41621138583832,-15.800000190734863
-428.24436368456008,-20.399999618530273
-427.07274218135353,-22.799999237060547
-425.90134683082943,-17.200000762939453
-424.73017758760216,-19
-423.55923440631159,-15.800000190734863
-422.38851724159576,-24.200000762939453
-421.21802604811455,-24.600000381469727
-420.04776078052782,-17.600000381469727
-418.87772139351546,-22.200000762939453
-417.70790784176643,-16.799999237060547
-416.53832007998062,-22.799999237060547
-415.36895806286157,-17.799999237060547
-414.19982174513279,-19
-413.03091108152512,-21
-411.86222602678754,-27
-410.69376653566542,-20.600000381469727
-409.52553256292776,-17.799999237060547
-408.35752406334905,-16.799999237060547
-407.18974099171828,-26.600000381469727
-406.02218330282813,-26.200000762939453
-404.85485095149124,-24.600000381469727
-403.68774389253122,-21.399999618530273
-402.5208620807698,-32.200000762939453
-401.35420547105241,-25.799999237060547
-400.18777401823172,-27.200000762939453
-399.02156767717497,-27
-397.85558640275485,-19
-396.68983014985315,-33.599998474121094
-395.52429887336984,-21.799999237060547
-394.35899252820855,-24
-393.1939110692947,-23.600000381469727
-392.02905445155375,-20.799999237060547
-390.8644226299275,-16.799999237060547
-389.70001555936324,-25.600000381469727
-388.53583319482641,-20.200000762939453
-387.37187549128976,-20.200000762939453
-386.20814240373875,-23.600000381469727
-385.04463388716613,-14.199999809265137
-383.8813498965792,-27.600000381469727
-382.71829038699252,-23
-381.55545531343887,-21.600000381469727
-380.392844630951,-26.799999237060547
-379.23045829458351,-24.600000381469727
-378.06829625939463,-29.200000762939453
-376.90635848045895,-28
-375.74464491285289,-21.200000762939453
-374.58315551167289,-18.600000381469727
-373.42189023202263,-31.399999618530273
-372.26084902901857,-21
-371.10003185778623,-28.600000381469727
-369.93943867346024,-27.200000762939453
-368.77906943119342,-27.600000381469727
-367.61892408613858,-24.200000762939453
-366.45900259346672,-27.600000381469727
-365.29930490835977,-30.399999618530273
-364.13983098601057,-25.799999237060547
-362.98058078161557,-27.200000762939453
-361.82155425039127,-22
-360.66275134756324,-27.399999618530273
-359.5041720283607,-29.200000762939453
-358.34581624803286,-25.799999237060547
-357.18768396183805,-33.799999237060547
-356.02977512504185,-28.399999618530273
-354.87208969291896,-21.200000762939453
-353.71462762076044,-25.600000381469727
-352.55738886386462,-31.600000381469727
-351.400373377548,-20.200000762939453
-350.24358111712354,-33.400001525878906
-349.08701203792953,-23
-347.93066609530615,-24.399999618530273
-346.77454324460632,-28.399999618530273
-345.61864344119567,-33
-344.46296664044894,-24.200000762939453
-343.30751279775541,-25.799999237060547
-342.15228186851164,-30.200000762939453
-340.99727380812146,-23
-339.84248857200873,-23.399999618530273
-338.68792611559365,-22.200000762939453
-337.53358639432554,-24
-336.37946936365006,-23
-335.2255749790329,-16.200000762939453
-334.07190319594883,-5.1999998092651367
-332.918453969869,-5.5999999046325684
-331.76522725630093,6
-330.61222301074304,8.6000003814697266
-329.45944118871012,8.1999998092651367
-328.30688174573515,3.5999999046325684
-327.15454463734568,3.5999999046325684
-326.00242981909287,-6.8000001907348633
-324.85053724653517,-5
-323.69886687524559,-15.399999618530273
-322.54741866080076,-21
-321.39619255879552,-17
-320.24518852482652,-24.200000762939453
-319.09440651450677,-30.200000762939453
-317.9438464834584,-23.200000762939453
-316.79350838731807,-29.200000762939453
-315.64339218173154,-23
-314.49349782234822,-23.600000381469727
-313.34382526483751,-27.399999618530273
-312.19437446487791,-35.400001525878906
-311.04514537814794,-19.600000381469727
-309.89613796035519,-32.400001525878906
-308.74735216720546,-22.200000762939453
-307.59878795441546,-33.200000762939453
-306.45044527772006,-16.799999237060547
-305.30232409285418,-26
-304.1544243555727,-35
-303.00674602163963,-26.600000381469727
-301.85928904682078,-28.799999237060547
-300.71205338690925,-26.200000762939453
-299.56503899768541,-23.799999237060547
-298.41824583496964,-29
-297.27167385456596,-31
-296.12532301230749,-29.600000381469727
-294.97919326402553,-22.200000762939453
-293.83328456556956,-20.600000381469727
-292.6875968728,-22.799999237060547
-291.54213014158267,-26.200000762939453
-290.39688432779803,-28.200000762939453
-289.25185938733557,-31.600000381469727
-288.10705527609389,-25.600000381469727
-286.96247194998614,-17.799999237060547
-285.81810936493457,-28
-284.67396747687235,-29.399999618530273
-283.53004624174173,-28.600000381469727
-282.38634561549406,-31
-281.24286555409708,-31.600000381469727
-280.09960601352395,-27.399999618530273
-278.95656694976424,-28.200000762939453
-277.81374831880566,-17.799999237060547
-276.67115007666143,-25.799999237060547
-275.52877217934838,-18
-274.38661458289062,-26.399999618530273
-273.24467724332862,-27.399999618530273
-272.10296011671562,-29.799999237060547
-270.961463159103,-27.200000762939453
-269.82018632656946,-23.200000762939453
-268.67912957519366,-34
-267.53829286106156,-24.200000762939453
-266.39767614028096,-28.799999237060547
-265.25727936895964,-32
-264.11710250322722,-23.200000762939453
-262.97714549921329,-23.200000762939453
-261.8374083130584,-20.399999618530273
-260.6978909009249,-23.200000762939453
-259.55859321897515,-24.200000762939453
-258.41951522338059,-21.799999237060547
-257.28065687033632,-23.600000381469727
-256.14201811603016,-17.799999237060547
-255.00359891667358,-25.600000381469727
-253.86539922848715,-28
-252.7274190076987,-22
-251.58965821054153,-28.399999618530273
-250.45211679326894,-25.799999237060547
-249.31479471214516,-24.200000762939453
-248.17769192343076,-26.200000762939453
-247.04080838342088,-12.800000190734863
-245.90414404839248,-16.200000762939453
-244.76769887465525,-14.800000190734863
-243.63147281852252,-22.399999618530273
-242.49546583631673,-14.600000381469727
-241.35967788436938,-21
-240.22410891902837,-12.199999809265137
-239.08875889664705,-20
-237.95362777358059,-16.200000762939453
-236.81871550621872,-14.600000381469727
-235.6840220509439,-16.799999237060547
-234.54954736414584,-13.399999618530273
-233.41529140224156,-19
-232.28125412163718,-12.199999809265137
-231.14743547876969,-10.399999618530273
-230.0138354300725,-11.800000190734863
-228.88045393199536,-7.5999999046325684
-227.74729094100257,-9.8000001907348633
-226.61434641355845,-11
-225.48162030614367,-10.600000381469727
-224.349112575248,-7.8000001907348633
-223.21682317737577,-5.1999998092651367
-222.08475206903313,0
-220.95289920674804,-1
-219.82126454705212,-2.4000000953674316
-218.68984804648244,1.3999999761581421
-217.5586496615997,-6.4000000953674316
-216.427669348961,-6.5999999046325684
-215.29690706514521,0.20000000298023224
-214.16636276673125,-3.2000000476837158
-213.03603641032169,0.60000002384185791
-211.90592795251541,-13.600000381469727
-210.77603734992772,1.6000000238418579
-209.64636455919026,6.1999998092651367
-208.51690953693469,-3.2000000476837158
-207.38767223980722,-5.8000001907348633
-206.25865262447223,0.800000011920929
-205.12985064758868,9.6000003814697266
-204.00126626584097,11.600000381469727
-202.87289943590986,-0.60000002384185791
-201.74475011450158,1.2000000476837158
-200.61681825831874,17.399999618530273
-199.48910382408758,0.800000011920929
-198.36160676853797,9.3999996185302734
-197.23432704840525,2.2000000476837158
-196.10726462043749,7.8000001907348633
-194.98041944140277,9.6000003814697266
-193.85379146806918,13.199999809265137
-192.72738065721751,10.199999809265137
-191.6011869656395,9.6000003814697266
-190.47521035013779,7.8000001907348633
-189.34945076753138,10.800000190734863
-188.22390817463383,9.3999996185302734
-187.09858252828053,6.1999998092651367
-185.97347378531958,6.4000000953674316
-184.84858190259911,10
-183.72390683699086,11.800000190734863
-182.59944854536116,8.3999996185302734
-181.47520698460175,17
-180.35118211159897,10.199999809265137
-179.22737388326641,26.600000381469727
-178.1037822565213,25
-176.9804071882827,30.799999237060547
-175.85724863548785,33.200000762939453
-174.73430655509037,39
-173.61158090404206,45.599998474121094
-172.48907163931108,52
-171.36677871787106,71.800003051757813
-170.24470209671563,74.5999984741211
-169.12284173284024,79.4000015258789
-168.00119758325309,97.800003051757813
-166.8797696049769,99
-165.75855775503624,94.199996948242188
-164.6375619904702,102.40000152587891
-163.51678226832883,97.199996948242188
-162.39621854567667,113.80000305175781
-161.27587077957287,111.80000305175781
-160.15573892710927,112.80000305175781
-159.03582294536864,125
-157.91612279145556,130
-156.79663842247828,124.59999847412109
-155.67736979555957,123.19999694824219
-154.55831686783313,127
-153.43947959643447,113.59999847412109
-152.32085793852275,118.19999694824219
-151.20245185125532,111.59999847412109
-150.08426129180589,127.80000305175781
-148.96628621735545,122.19999694824219
-147.84852658509953,126.59999847412109
-146.73098235223915,137.60000610351563
-145.61365347598803,152.80000305175781
-144.49653991357081,139.80000305175781
-143.3796416222176,159
-142.26295855917488,168.19999694824219
-141.14649068169638,172.19999694824219
-140.03023794704677,185.80000305175781
-138.91420031250163,183.60000610351563
-137.79837773533836,193.39999389648438
-136.68277017286164,207
-135.56737758237068,217.60000610351563
-134.45219992117563,231.60000610351563
-133.33723714661573,246.80000305175781
-132.22248921601567,268
-131.10795608672197,288
-129.99363771609387,311
-128.87953406149063,326.60000610351563
-127.76564508029878,372.20001220703125
-126.65197072989395,386
-125.53851096768085,412
-124.4252657510624,436.79998779296875
-123.31223503745423,438.79998779296875
-122.19941878428472,460.20001220703125
-121.08681694899133,471.39999389648438
-119.97442948901517,484
-118.8622563618228,502.79998779296875
-117.75029752487717,513.79998779296875
-116.63855293565393,548
-115.52702255164331,576.20001220703125
-114.41570633034462,597.4000244140625
-113.30460422925898,622.4000244140625
-112.19371620590573,679.5999755859375
-111.08304221782055,707.20001220703125
-109.97258222253549,753.5999755859375
-108.86233617759535,810.20001220703125
-107.75230404056492,851.4000244140625
-106.64248576901082,891.5999755859375
-105.53288132051239,953.5999755859375
-104.42349065265807,996.5999755859375
-103.31431372304178,1050.4000244140625
-102.20535048927377,1087.5999755859375
-101.09660090898069,1174.199951171875
-99.988064939780088,1258.5999755859375
-98.879742539320432,1302.199951171875
-97.771633665246554,1426.4000244140625
-96.6637382752142,1513
-95.556056326899125,1662.5999755859375
-94.448587777975263,1759.5999755859375
-93.34133258613474,1861.800048828125
-92.234290709076959,2041.800048828125
-91.1274621045086,2152.199951171875
-90.020846730150879,2300.800048828125
-88.914444543732316,2428
-87.808255502995962,2487.39990234375
-86.7022795656867,2469
-85.596516689563941,2415
-84.490966832401682,2339.199951171875
-83.385629951977535,2342
-82.280506006080032,2337.800048828125
-81.175594952508618,2404
-80.070896749077292,2514.199951171875
-78.966411353598232,2556.800048828125
-77.862138723905446,2668.800048828125
-76.7580788178384,2766.39990234375
-75.654231593249278,2862
-74.550597007988472,2948.800048828125
-73.447175019935457,3086
-72.3439655869679,3320.800048828125
-71.240968666974368,3568.39990234375
-70.138184217854359,3795
-69.035612197516457,3899.800048828125
-67.933252563881979,3862.800048828125
-66.831105274881338,3764.800048828125
-65.7291702884504,3733.800048828125
-64.62744756254142,3723.199951171875
-63.525937055112081,3890
-62.424638724134638,3998.199951171875
-61.323552527588618,4086.199951171875
-60.222678423459,4212.39990234375
-59.122016369747143,4486.2001953125
-58.02156632446713,4879.2001953125
-56.92132824563123,5146.39990234375
-55.821302091271718,5143
-54.721487819426329,4945.60009765625
-53.621885388145529,4676.2001953125
-52.522494755494336,4376
-51.423315879526854,4075.800048828125
-50.324348718333567,4085.39990234375
-49.225593230001323,4422.7998046875
-48.12704937262788,5342.2001953125
-47.028717104320094,6908.7998046875
-45.930596383199372,8605.7998046875
-44.832687167392578,9626.2001953125
-43.734989415037489,9790
-42.637503084284617,9886.7998046875
-41.540228133289929,10492.2001953125
-40.443164520223945,12577.400390625
-39.346312203260823,15761.400390625
-38.249671140592909,18246.19921875
-37.153241290412552,19124.400390625
-36.057022610932108,18445
-34.961015060369391,17759.80078125
-33.865218596949489,18168
-32.769633178906588,18000.80078125
-31.6742587644967,17286.80078125
-30.579095311970377,16002.7998046875
-29.484142779594549,14854
-28.389401125643417,14066.599609375
-27.29487030841301,13068.7998046875
-26.200550286193902,12442.2001953125
-25.106441017293037,11710
-24.012542460020995,11003.599609375
-22.918854572712007,10188.599609375
-21.82537731370212,9784.400390625
-20.7321106413292,9248.7998046875
-19.639054513960218,8691
-18.546208889949412,8013
-17.453573727678304,7681.60009765625
-16.361148985530235,7387.60009765625
-15.268934621899461,7161
-14.176930595191152,6995.2001953125
-13.085136863823209,6954.60009765625
-11.993553386213534,6862.39990234375
-10.902180120801859,6924.2001953125
-9.8110170260297309,6814.60009765625
-8.720064060353252,6767.7998046875
-7.62932118223398,6792.60009765625
-6.5387883501425677,6183.39990234375
-5.448465522567858,4374
-4.3583526579986938,2065.199951171875
-3.2684497149384697,433.39999389648438
-2.1787566519033135,340.60000610351563
-1.0892734274111717,337.20001220703125
0,438.79998779296875
1.0890636717958841,1579.800048828125
2.1779176294185163,3576.800048828125
3.266561914309932,5663.2001953125
4.354996567899434,6451
5.443221631601773,6664.60009765625
6.5312371468298807,6867.60009765625
7.6190431549803179,6910.60009765625
8.7066396974460076,7017
9.7940268156035017,7117.60009765625
10.881204550825714,7235.7998046875
11.968172944472826,7385
13.054932037890467,7654.2001953125
14.141481872427903,7924.60009765625
15.227822489416212,8333.599609375
16.313953930162825,8865.599609375
17.399876235997,9479
18.485589448209794,10082.7998046875
19.571093608095907,10779.400390625
20.656388756942761,11423
21.74147493601231,12289.2001953125
22.826352186579243,13107.7998046875
23.911020549890964,13979.599609375
24.995480067191238,14945.400390625
26.079730779716556,15992.7998046875
27.163772728685217,17141
28.247605955324616,18416.19921875
29.331230500825768,19782.19921875
30.414646406390602,20358.599609375
31.49785371319922,20297.400390625
32.58085246243354,20162.19921875
33.663642695257295,21020.400390625
34.746224452830575,21466.400390625
35.828597776289826,20290.80078125
36.910762706780588,17016.80078125
37.992719285430212,13833.599609375
39.074467553356953,11968.2001953125
40.156007551660878,11443.2001953125
41.237339321447507,11608.400390625
42.318462903804175,11193.2001953125
43.39937833980548,9902.599609375
44.48008567053148,7842.7998046875
45.560584937029489,5951.7998046875
46.6408761803541,5148.39990234375
47.720959441552623,4933.2001953125
48.80083476164873,5064.2001953125
49.880502181658812,5389.7998046875
50.9599617426029,5788.2001953125
52.039213485481014,6218
53.118257451287718,6435.2001953125
54.197093680997568,6414.7998046875
55.275722215592396,6083
56.354143096026746,5613.60009765625
57.432356363258805,5300.7998046875
58.510362058235842,5199
59.588160221886938,5049.60009765625
60.665750895142992,4914.60009765625
61.743134118913076,4861.2001953125
62.820309934106263,4771
63.89727838161707,4867.39990234375
64.974039502334563,4976.7998046875
66.050593337131431,5051.2001953125
67.12693992687673,4986.60009765625
68.203079312430418,4777
69.2790115346379,4452
70.354736634337314,4142.39990234375
71.43025465235587,3971.800048828125
72.505565629522607,3806.60009765625
73.580669606635638,3748
74.655566624502171,3622
75.730256723907587,3518.39990234375
76.804739945639085,3445.60009765625
77.879016330462036,3363.800048828125
78.953085919145451,3269.60009765625
80.026948752434691,3205.60009765625
81.10060487107512,3224.199951171875
82.174054315803,3268.800048828125
83.247297127336424,3415.800048828125
84.320333346397092,3492.60009765625
85.39316301368126,3488.60009765625
86.465786169887,3406.60009765625
87.538202855701456,3212.800048828125
88.610413111804519,3012
89.682416978852416,2854.39990234375
90.754214497510475,2697
91.825805708424014,2536.199951171875
92.897190652229256,2402.60009765625
93.968369369558786,2249.39990234375
95.039341901027,2095
96.110108287242838,1975.5999755859375
97.180668568809779,1876.199951171875
98.251022786316753,1779.199951171875
99.321170980345414,1669.5999755859375
100.39111319146468,1612.800048828125
101.46084946023984,1530
102.53037982722162,1479.4000244140625
103.59970433295166,1398.5999755859375
104.66882301796431,1327.199951171875
105.73773592278485,1265.800048828125
106.8064430879258,1210.5999755859375
107.87494455389424,1131.4000244140625
108.94324036118269,1080
110.01133055028004,1060.199951171875
111.07921516166243,992.79998779296875
112.1468942357933,954.79998779296875
113.21436781313787,921
114.28163593413956,882.5999755859375
115.3486986392345,852.20001220703125
116.41555596884973,824.4000244140625
117.48220796341775,797.79998779296875
118.54865466334195,793
119.61489610901845,796.20001220703125
120.68093234084154,764.5999755859375
121.74676339919642,745.20001220703125
122.81238932445376,723.20001220703125
123.87781015697874,695.20001220703125
124.94302593711836,657.20001220703125
126.00803670522509,609.20001220703125
127.07284250162593,555.79998779296875
128.13744336665695,534
129.20183934062334,495.79998779296875
130.26603046383752,472.39999389648438
131.33001677659377,440.60000610351563
132.3937983191845,414
133.4573751318876,414.39999389648438
134.52074725496641,387
135.58391472868425,377.20001220703125
136.6468775932899,361.20001220703125
137.70963588902487,357.20001220703125
138.77218965612155,340
139.83453893480146,328.79998779296875
140.89668376527698,317.39999389648438
141.95862418775323,317.39999389648438
143.02036024241897,310.20001220703125
144.0818919694666,283.39999389648438
145.14321940906302,277.60000610351563
146.20434260137881,267.60000610351563
147.26526158656816,266.20001220703125
148.32597640478161,255.60000610351563
149.38648709615154,270
150.4467937008103,268.39999389648438
151.50689625887571,275.20001220703125
152.5667948104583,280.39999389648438
153.62648939565406,308.60000610351563
154.68598005455897,299.79998779296875
155.74526682725445,297.20001220703125
156.8043497538074,287
157.86322887428469,273.60000610351563
158.9219042287441,263.79998779296875
159.98037585721977,251.60000610351563
161.03864379975494,264.60000610351563
162.096708096371,252
163.15456878708392,251.19999694824219
164.21222591190417,256.20001220703125
165.2696795108277,229.19999694824219
166.32692962384135,220
167.38397629092287,213.39999389648438
168.4408195520482,189.19999694824219
169.4974594471696,168.39999389648438
170.55389601624302,152.60000610351563
171.61012929921162,136.19999694824219
172.66615933600406,122.19999694824219
173.7219861665435,121.59999847412109
174.7776098307495,100.59999847412109
175.83303036851612,93.800003051757813
176.88824781974836,88.800003051757813
177.94326222432755,82.4000015258789
178.99807362213323,81.5999984741211
180.05268205302673,69
181.10708755687847,75.5999984741211
182.16129017352432,65.800003051757813
183.21528994280743,64.800003051757813
184.26908690456366,62.799999237060547
185.32268109860706,70.5999984741211
186.37607256475167,70.4000015258789
187.42926134280606,73.199996948242188
188.482247472557,70
189.53503099378759,57
190.58761194627914,74.199996948242188
191.63999036979294,63.200000762939453
192.692166304083,62.799999237060547
193.7441397888997,61.799999237060547
194.79591086397886,73.800003051757813
195.8474795690563,67.199996948242188
196.89884594384057,65
197.95001002804929,62
199.00097186138009,68
200.05173148352878,58.200000762939453
201.10228893417116,65.4000015258789
202.15264425298847,61
203.2027974796365,52.799999237060547
204.25274865377651,65
205.30249781504972,58.200000762939453
206.35204500309737,55.200000762939453
207.4013902575407,52
208.45053361800274,55.200000762939453
209.49947512409562,44.200000762939453
210.54821481540785,47.799999237060547
211.59675273154062,48.799999237060547
212.64508891206788,47.400001525878906
213.69322339656719,49.599998474121094
214.74115622459976,45.200000762939453
215.78888743571224,50.599998474121094
216.83641706946219,48.400001525878906
217.88374516537988,51.400001525878906
218.93087176298468,46.200000762939453
219.97779690180323,44.599998474121094
221.02452062133852,46.799999237060547
222.0710429610881,43.599998474121094
223.11736396054403,46.400001525878906
224.16348365918566,33.400001525878906
225.2094020964887,36.599998474121094
226.25511931190886,33.200000762939453
227.3006353449,27.600000381469727
228.34595023491056,19.799999237060547
229.39106402137622,29.200000762939453
230.43597674371449,13.399999618530273
231.48068844134468,20.799999237060547
232.52519915367702,19
233.569508920109,27.399999618530273
234.61361778002538,18.600000381469727
235.65752577281455,20.600000381469727
236.70123293784127,16.399999618530273
237.74473931446664,16.200000762939453
238.78804494204451,11.800000190734863
239.83114985991779,9.3999996185302734
240.87405410742394,10.800000190734863
241.91675772388407,2.2000000476837158
242.95926074861745,9.6000003814697266
244.00156322093062,-0.40000000596046448
245.04366518011921,2.7999999523162842
246.08556666547338,5.4000000953674316
247.12726771627604,0
248.16876837179188,-0.20000000298023224
249.21006867128381,-9
250.25116865401105,-1
251.29206835920559,-5.8000001907348633
252.33276782611392,3.7999999523162842
253.37326709395347,-7.8000001907348633
254.41356620194165,-3.5999999046325684
255.45366518928495,-18.600000381469727
256.49356409518441,-8.6000003814697266
257.53326295883016,-8.3999996185302734
258.57276181939596,-11.800000190734863
259.61206071605739,-7.5999999046325684
260.65115968797545,-10
261.69005877429845,-11.199999809265137
262.72875801417831,-9
263.76725744674513,-11.800000190734863
264.80555711111992,-11.600000381469727
265.84365704643096,-17.200000762939453
266.88155729177379,-9.8000001907348633
267.91925788625122,-16.799999237060547
268.95675886895515,-17.200000762939453
269.99406027896839,-14
271.03116215535192,-7.1999998092651367
272.06806453717945,-18
273.10476746349923,-15
274.14127097334858,-20.799999237060547
275.17757510577758,-20.399999618530273
276.21367989980354,-17.399999618530273
277.24958539444378,-24.200000762939453
278.28529162870836,-22.399999618530273
279.32079864159641,-13.800000190734863
280.35610647209614,-20.600000381469727
281.39121515919214,-18.399999618530273
282.42612474185262,-20
283.46083525904578,-12
284.49534674972347,-20.399999618530273
285.52965925283388,-21.399999618530273
286.56377280730703,-25.200000762939453
287.59768745207475,-22.399999618530273
288.63140322605432,-14.600000381469727
289.66492016815391,-23.600000381469727
290.6982383172799,-22.200000762939453
291.73135771231318,-21.399999618530273
292.76427839214739,-21.799999237060547
293.79700039564887,-29.600000381469727
294.82952376168032,-21.600000381469727
295.86184852910264,-23
296.89397473676581,-36.799999237060547
297.92590242349979,-19.399999618530273
298.95763162813637,-27.399999618530273
299.9891623894946,-28
301.02049474638625,-28.399999618530273
302.05162873761219,-22.399999618530273
303.082564401966,-27.799999237060547
304.1133017782322,-25.600000381469727
305.14384090518251,-23.200000762939453
306.1741818215869,-27.399999618530273
307.20432456620438,-21.399999618530273
308.23426917777579,-20.600000381469727
309.26401569504924,-25
310.29356415674738,-19
311.32291460160013,-22.399999618530273
312.35206706831377,-26.399999618530273
313.38102159559276,-9.3999996185302734
314.40977822213063,-18
315.43833698661547,-19.200000762939453
316.46669792772627,-4.8000001907348633
317.49486108412748,-2.5999999046325684
318.52282649447989,14
319.55059419743338,18.200000762939453
320.5781642316324,33.400001525878906
321.60553663570317,45
322.63271144827559,68.199996948242188
323.65968870795768,104.19999694824219
324.68646845335934,115.59999847412109
325.71305072307769,130.39999389648438
326.73943555570077,138.19999694824219
327.76562298980934,112
328.79161306396782,84.199996948242188
329.81740581674421,52
330.84300128668838,22.799999237060547
331.86839951234651,4.4000000953674316
332.89360053224482,-4.8000001907348633
333.9186043849204,-19.399999618530273
334.9434111088849,-27.799999237060547
335.96802074264451,-26
336.9924333247036,-27
338.016648893552,-31.399999618530273
339.04066748766672,-30.200000762939453
340.06448914552857,-30
341.08811390559458,-34
342.11154180632184,-32
343.13477288616014,-38.799999237060547
344.15780718354108,-31.799999237060547
345.1806447368981,-35.599998474121094
346.20328558465189,-32.599998474121094
347.22572976520678,-37
348.24797731697436,-33
349.2700282783444,-32
350.29188268769758,-43.200000762939453
351.3135405834164,-36.799999237060547
352.3350020038597,-35
353.35626698739179,-34.400001525878906
354.37733557236061,-36.599998474121094
355.39820779711044,-40.599998474121094
356.41888369996741,-35.799999237060547
357.43936331925579,-34.400001525878906
358.4596466932926,-28
359.47973386038029,-41
360.4996248588177,-36.200000762939453
361.51931972688908,-33.400001525878906
362.53881850287689,-41.799999237060547
363.55812122505267,-34.799999237060547
364.57722793167341,-36.400001525878906
365.59613866099608,-32.400001525878906
366.61485345126675,-38.200000762939453
367.63337234071332,-40.400001525878906
368.65169536756548,-41.200000762939453
369.66982257004383,-34.400001525878906
370.68775398635444,-39.799999237060547
371.70548965469789,-35.799999237060547
372.7230296132675,-47.200000762939453
373.74037390024205,-42.200000762939453
374.75752255379666,-36
375.7744756120992,-43.200000762939453
376.79123311330659,-37.599998474121094
377.80779509556305,-47.799999237060547
378.82416159700733,-37
379.84033265577273,-40.200000762939453
380.856308309978,-36.599998474121094
381.87208859774,-35.799999237060547
382.88767355716118,-40.200000762939453
383.90306322633296,-37.400001525878906
384.918257643345,-37.599998474121094
385.933256846276,-40
386.94806087319375,-33.200000762939453
387.96266976215884,-39.599998474121094
388.97708355122268,-39.400001525878906
389.99130227842943,-37.400001525878906
391.005325981816,-37.400001525878906
392.01915469940104,-38.200000762939453
393.03278846921057,-37
394.04622732924145,-41.799999237060547
395.05947131750145,-37.200000762939453
396.072520471982,-40.599998474121094
397.08537483066175,-33.200000762939453
398.09803443151395,-38.200000762939453
399.11049931250454,-47
400.12276951158856,-36.599998474121094
401.13484506671739,-34.400001525878906
402.14672601582424,-33.400001525878906
403.15841239684596,-37.200000762939453
404.16990424769574,-38.799999237060547
405.18120160629041,-42.200000762939453
406.19230451053772,-36.200000762939453
407.20321299832722,-36.400001525878906
408.21392710754844,-30.399999618530273
409.22444687608004,-35.799999237060547
410.2347723417879,-43.200000762939453
411.24490354253794,-33.599998474121094
412.25484051617786,-37.400001525878906
413.26458330055357,-34.200000762939453
414.27413193350003,-26.799999237060547
415.28348645284314,-42.400001525878906
416.29264689639967,-35
417.30161330197734,-43.200000762939453
418.310385707382,-28.600000381469727
419.31896415039773,-35
420.327348668814,-40
421.33553930040034,-30.200000762939453
422.34353608292622,-32.400001525878906
423.35133905414659,-31.799999237060547
424.35894825181094,-26.600000381469727
425.366363713656,-40.200000762939453
426.37358547742224,-33.200000762939453
427.38061358082268,-43.599998474121094
428.38744806157592,-28.799999237060547
429.39408895738779,-33.599998474121094
430.40053630595321,-35.200000762939453
431.40679014495618,-29.799999237060547
432.41285051209161,-41.599998474121094
433.41871744501259,-32.599998474121094
434.42439098139221,-35.400001525878906
435.42987115888172,-32.599998474121094
436.43515801512694,-36.599998474121094
437.4402515877664,-39.400001525878906
438.44515191442224,-29
439.44985903272209,-39
440.45437298026809,-37
441.45869379467149,-34.200000762939453
442.4628215135217,-39.400001525878906
443.46675617440451,-36.400001525878906
444.47049781489659,-34.599998474121094
445.47404647256735,-45.400001525878906
446.47740218497347,-38.400001525878906
447.480564989668,-41
448.483534924193,-29.600000381469727
449.48631202608703,-35.799999237060547
450.48889633286853,-38.799999237060547
451.49128788205962,-38.799999237060547
452.49348671116604,-39
453.49549285768262,-36.400001525878906
454.49730635911328,-31.399999618530273
455.49892725292921,-34.799999237060547
456.50035557661067,-35.200000762939453
457.50159136762159,-32.200000762939453
458.50263466341676,-32.400001525878906
459.503485501451,-31
460.50414391915729,-36
461.50460995397043,-28.600000381469727
462.5048836433125,-28.600000381469727
463.50496502460373,-31.600000381469727
464.50485413524257,-26.799999237060547
465.50455101262742,-23
466.50405569415489,-28.200000762939453
467.50336821719429,-19.200000762939453
468.50248861912587,-8.6000003814697266
469.50141693731166,4.4000000953674316
470.50015320910279,8.6000003814697266
471.49869747185039,7.8000001907348633
472.49704976288922,7.5999999046325684
473.49521011955221,-1.3999999761581421
474.49317857915776,0.800000011920929
475.49095517901515,-10
476.48853995643731,-19.799999237060547
477.48593294871353,-20.200000762939453
478.48313419313126,-30.399999618530273
479.48014372697253,-27.799999237060547
480.47696158750477,-32.200000762939453
481.47358781198818,-31.600000381469727
482.47002243768111,-31.600000381469727
483.46626550182373,-36.799999237060547
484.46231704165621,-37
485.45817709440053,-37.200000762939453
486.45384569728049,-27.399999618530273
487.44932288750715,-34.400001525878906
488.44460870228249,-35.400001525878906
489.43970317880303,-31
490.4346063542489,-38.799999237060547
491.42931826580025,-29.399999618530273
492.4238389506263,-39.400001525878906
493.41816844588539,-33.799999237060547
494.41230678873217,-33
495.40625401630859,-40.799999237060547
496.40001016574752,-31.799999237060547
497.39357527418179,-36.200000762939453
498.3869493787206,-35.799999237060547
499.3801325164859,-28.399999618530273
500.37312472456688,-29.799999237060547
501.36592604006182,-36.400001525878906
502.35853650005447,-28.799999237060547
503.35095614162128,-35.400001525878906
504.34318500183144,-37.599998474121094
505.33522311774323,-27
506.32707052640581,-33.799999237060547
507.3187272648629,-38.599998474121094
508.31019337014914,-40.200000762939453
509.30146887928822,-28.600000381469727
510.29255382930023,-31.200000762939453
511.28344825719068,-37
512.27415219996328,-26.799999237060547
513.26466569460717,-32.200000762939453
514.25498877810969,-30.799999237060547
515.24512148744543,-32
516.23506385957626,-33.200000762939453
517.22481593147131,-33.799999237060547
518.214377740067,-28.200000762939453
519.20374932231425,-21.799999237060547
520.19293071514585,-41.599998474121094
521.18192195548909,-27.399999618530273
522.17072308025308,-40.599998474121094
523.15933412635422,-23.200000762939453
524.14775513068525,-31.799999237060547
525.13598613014619,-36
526.12402716160977,-26
527.11187826196146,-34
528.09953946806127,-28.200000762939453
529.08701081677282,-26.600000381469727
530.07429234493793,-24.600000381469727
531.06138408940751,-29
532.048286087007,-16
533.03499837456729,-22.799999237060547
534.0215209889011,-24
535.00785396682113,-26.600000381469727
535.99399734512008,-28
536.97995116059792,-27.799999237060547
537.965715450031,-31.600000381469727
538.95129025019924,-33
539.93667559786809,-30.600000381469727
540.921871529792,-25.399999618530273
541.90687808272924,-33.599998474121094
542.89169529341052,-29.799999237060547
543.87632319857767,-32
544.86076183495788,-30.399999618530273
545.84501123925838,-29.399999618530273
546.82907144819546,-31.600000381469727
547.8129424984636,-34.799999237060547
548.7966244267609,-31.600000381469727
549.78011726976547,-27
550.76342106415723,-28.600000381469727
551.74653584660155,-29.600000381469727
552.7294616537547,-36.200000762939453
553.71219852227114,-25
554.69474648879077,-30.200000762939453
555.677105589948,-28.600000381469727
556.65927586237194,-25.600000381469727
557.64125734267327,-30.799999237060547
558.62305006746465,-33.200000762939453
559.604654073346,-30.799999237060547
560.58606939691163,-26.600000381469727
561.56729607475063,-32.400001525878906
562.54833414342647,-26
563.5291836395154,-30.399999618530273
564.50984459957726,-22.399999618530273
565.490317060161,-24.799999237060547
566.4706010578102,-20.399999618530273
567.450696629061,-28
568.43060381044052,-26.600000381469727
569.41032263846137,-14.800000190734863
570.38985314963975,1.7999999523162842
571.36919538047732,1.6000000238418579
572.348349367463,-2.7999999523162842
573.32731514708939,-19.600000381469727
574.30609275582538,-17.399999618530273
575.28468223014534,-33.400001525878906
576.26308360651274,-26.399999618530273
577.24129692136921,-22.799999237060547
578.219322211171,-27.600000381469727
579.197159512345,-31
580.17480886132762,-22.799999237060547
581.15227029453308,-33.400001525878906
582.12954384837394,-26.799999237060547
583.10662955925181,-24.200000762939453
584.08352746356286,-30.600000381469727
585.06023759769778,-26.399999618530273
586.03675999802908,-33.400001525878906
587.01309470092929,-29.200000762939453
587.98924174276181,-32.400001525878906
588.965201159881,-22.600000381469727
589.940972988632,-25.799999237060547
590.916557265351,-38.200000762939453
591.89195402637051,-26.200000762939453
592.86716330800846,-19.200000762939453
593.84218514657914,-28.200000762939453
594.81701957839141,-29.399999618530273
595.79166663973774,-26.799999237060547
596.76612636690516,-27.399999618530273
597.74039879617885,-27.200000762939453
598.71448396382948,-31.399999618530273
599.68838190611859,-26.399999618530273
600.66209265930229,-22.399999618530273
601.63561625963666,-24.799999237060547
602.60895274334871,-32
603.58210214668,-21
604.55506450584653,-28.600000381469727
605.52783985706992,-34.400001525878906
606.50042823655167,-28.600000381469727
607.472829680497,-29.600000381469727
608.44504422508908,-25.399999618530273
609.41707190651687,-26.399999618530273
610.38891276095092,-25.399999618530273
611.36056682456,-25
612.332034133502,-23.799999237060547
613.3033147239239,-32
614.2744086319708,-12.800000190734863
615.24531589377693,-20.600000381469727
616.216036545462,-24.799999237060547
617.18657062315287,-25.600000381469727
618.15691816295475,-30.399999618530273
619.12707920096727,-24.799999237060547
620.09705377328282,-23.600000381469727
621.06684191599379,-27.200000762939453
622.03644366517074,-22.600000381469727
623.0058590568824,-35.799999237060547
623.97508812719207,-29
624.94413091215029,-28.200000762939453
625.912987447804,-29
626.88165777019094,-24.799999237060547
627.85014191533446,-24
628.81843991925962,-25.200000762939453
629.78655181797694,-22.399999618530273
630.75447764748969,-30.399999618530273
631.72221744379385,-22.399999618530273
632.68977124288176,-29.600000381469727
633.65713908072576,-20
634.62432099330545,-26.600000381469727
635.59131701657861,-22.200000762939453
636.55812718650486,-22.200000762939453
637.52475153902742,-28.200000762939453
638.49119011009134,-19.200000762939453
639.45744293562529,-22.200000762939453
640.42351005155251,-29.399999618530273
641.38939149379257,-28
642.355087298245,-24
643.32059750081135,-16.799999237060547
644.28592213738557,-26.600000381469727
645.25106124385456,-28.799999237060547
646.216014856087,-26.600000381469727
647.18078300994785,-25
648.1453657413058,-25
649.10976308600038,-25.200000762939453
650.07397507988208,-19.799999237060547
651.03800175878678,-27.200000762939453
652.00184315853767,-13.600000381469727
652.96549931495247,-34.799999237060547
653.92897026384526,-20.399999618530273
654.89225604101739,-28.600000381469727
655.85535668226476,-27.600000381469727
656.81827222337415,-26.399999618530273
657.78100270012328,-25.399999618530273
658.74354814828257,-21.799999237060547
659.70590860361335,-18.200000762939453
660.66808410187514,-27
661.63007467881289,-22.399999618530273
662.59188037016247,-26
663.55350121165611,-20.799999237060547
664.514937239017,-27.399999618530273
665.47618848796083,-22.799999237060547
666.4372549941927,-27.399999618530273
667.39813679341023,-27.399999618530273
668.35883392130745,-28.399999618530273
669.31934641356565,-28.399999618530273
670.27967430585886,-26.799999237060547
671.23981763385382,-22.600000381469727
672.19977643321,-19
673.15955073957775,-29.799999237060547
674.119140588602,-23.399999618530273
675.07854601591134,-27.200000762939453
676.03776705714154,-24.200000762939453
676.99680374790478,-22.200000762939453
677.95565612381506,-13.600000381469727
678.91432422047183,-36.400001525878906
679.87280807347634,-13.800000190734863
680.83110771841166,-24.399999618530273
681.78922319085541,-22.600000381469727
682.74715452638156,-25.200000762939453
683.70490176055318,-23.200000762939453
684.66246492892424,-17
