-777.74687133807856,8.1999998092651367
-776.50770429765,11.399999618530273
-775.26877705141487,3.4000000953674316
-774.03008955063888,8.1999998092651367
-772.79164174658763,11.199999809265137
-771.55343359055223,11
-770.31546503381287,15.600000381469727
-769.07773602767884,8.1999998092651367
-767.8402465234667,21
-766.60299647250758,7.1999998092651367
-765.36598582614351,18.399999618530273
-764.12921453572744,12.800000190734863
-762.89268255262323,15.600000381469727
-761.65638982821292,12.600000381469727
-760.42033631388222,12.800000190734863
-759.184521961035,12
-757.948946721086,8.6000003814697266
-756.71361054546833,8
-755.47851338560758,10.399999618530273
-754.24365519296589,15.800000190734863
-753.009035918998,7.1999998092651367
-751.77465551518071,15.199999809265137
-750.5405139330087,13.800000190734863
-749.30661112396592,10.399999618530273
-748.0729470395836,9.3999996185302734
-746.8395216313711,12.399999618530273
-745.60633485086328,5
-744.3733866496168,10.199999809265137
-743.14067697918108,8.6000003814697266
-741.90820579113461,10
-740.67597303705952,8.6000003814697266
-739.44397866855252,17.200000762939453
-738.21222263721756,17.799999237060547
-736.98070489468046,8.8000001907348633
-735.749425392567,15.399999618530273
-734.51838408252479,11.199999809265137
-733.28758091621239,12
-732.057015845292,11
-730.82668882144753,13.800000190734863
-729.59659979637036,10
-728.366748721759,7.4000000953674316
-727.13713554934475,12.600000381469727
-725.90776023084072,20.399999618530273
-724.67862271799277,10.199999809265137
-723.449722962554,13
-722.22106091628848,9.6000003814697266
-720.99263653096386,9.8000001907348633
-719.76444975838785,8.8000001907348633
-718.53650055034268,9.6000003814697266
-717.308788858647,7.4000000953674316
-716.08131463512655,11.800000190734863
-714.85407783161827,5
-713.62707839996983,9
-712.40031629203258,12.199999809265137
-711.17379145969062,8.8000001907348633
-709.94750385482075,12.199999809265137
-708.72145342932527,9.8000001907348633
-707.49564013510644,9.8000001907348633
-706.27006392408839,11.399999618530273
-705.04472474819522,9.8000001907348633
-703.81962255938379,7.1999998092651367
-702.59475730959639,13.600000381469727
-701.3701289508117,17.799999237060547
-700.14573743500478,7
-698.9215827141652,11
-697.69766474030075,5.8000001907348633
-696.47398346541922,16.799999237060547
-695.25053884156114,8
-694.02733082075611,8.3999996185302734
-692.80435935505557,8.8000001907348633
-691.58162439652915,13.800000190734863
-690.35912589724649,10.800000190734863
-689.13686380929175,11.199999809265137
-687.91483808476733,7.1999998092651367
-686.69304867578649,8.8000001907348633
-685.47149553447343,7.1999998092651367
-684.25017861295237,5.5999999046325684
-683.02909786337659,9.6000003814697266
-681.80825323790668,16.399999618530273
-680.5876446887105,18
-679.3672721679668,2.4000000953674316
-678.14713562787256,11.800000190734863
-676.92723502063564,4.4000000953674316
-675.70757029846391,10.199999809265137
-674.48814141360162,10
-673.26894831827849,14.800000190734863
-672.04999096475331,7.5999999046325684
-670.83126930528488,7.5999999046325684
-669.61278329215747,13.399999618530273
-668.39453287765537,12.399999618530273
-667.176518014081,13.800000190734863
-665.95873865374051,6.4000000953674316
-664.7411947489727,0.800000011920929
-663.5238862520946,20.799999237060547
-662.30681311546687,5.5999999046325684
-661.0899752914429,10
-659.87337273240155,8
-658.6570053907144,5.4000000953674316
-657.44087321878942,7.5999999046325684
-656.22497616902,8.3999996185302734
-655.009314193836,4.1999998092651367
-653.79388724565979,9.8000001907348633
-652.57869527693947,15.199999809265137
-651.363738240123,1.7999999523162842
-650.14901608768014,11
-648.93452877208438,11
-647.720276245831,11.199999809265137
-646.5062584614152,9.1999998092651367
-645.29247537135416,5.5999999046325684
-644.078926928165,7.8000001907348633
-642.86561308439377,15.600000381469727
-641.65253379257956,4.5999999046325684
-640.43968900529035,7.1999998092651367
-639.22707867508689,7.5999999046325684
-638.01470275456631,6.1999998092651367
-636.80256119630758,4.5999999046325684
-635.590653952926,6.1999998092651367
-634.37898097704056,9.3999996185302734
-633.16754222128111,7.4000000953674316
-631.95633763828118,6.5999999046325684
-630.745367180707,8
-629.534630801214,1.2000000476837158
-628.32412845248655,7.1999998092651367
-627.11386008720547,2.4000000953674316
-625.9038256580734,-4.4000000953674316
-624.69402511780754,9.6000003814697266
-623.48445841912508,2.4000000953674316
-622.27512551476138,7.1999998092651367
-621.0660263574664,3.4000000953674316
-619.85716089999733,14
-618.64852909512592,11.800000190734863
-617.44013089563123,10
-616.2319662543141,5.5999999046325684
-615.0240351239645,0
-613.81633745741237,8.3999996185302734
-612.60887320749134,1.7999999523162842
-611.40164232702409,2.2000000476837158
-610.194644768877,3.4000000953674316
-608.98788048590177,6.8000001907348633
-607.781349430983,10.399999618530273
-606.57505155700892,-0.800000011920929
-605.36898681687126,-1
-604.1631551634764,4.1999998092651367
-602.95755654975983,3
-601.75219092864245,-0.800000011920929
-600.54705825307065,5.5999999046325684
-599.34215847600535,8.1999998092651367
-598.13749155041478,3.5999999046325684
-596.93305742927441,1.6000000238418579
-595.72885606557793,3
-594.52488741232992,10.399999618530273
-593.32115142254224,7
-592.117648049245,5.5999999046325684
-590.91437724546449,3
-589.71133896426,3.2000000476837158
-588.50853315869062,2.2000000476837158
-587.30595978182646,5.5999999046325684
-586.10361878675576,4
-584.90151012657043,6
-583.69963375437328,-0.800000011920929
-582.49798962329442,2.4000000953674316
-581.296577686453,-0.20000000298023224
-580.09539789699556,4.8000001907348633
-578.894450208074,2
-577.69373457285474,10.800000190734863
-576.4932509445116,9
-575.29299927623651,5.4000000953674316
-574.09297952122142,7.8000001907348633
-572.89319163268192,3
-571.69363556384451,2
-570.49431126793752,6
-569.29521869820383,-0.60000002384185791
-568.09635780790632,-0.800000011920929
-566.89772855030969,-0.40000000596046448
-565.69933087869686,7.8000001907348633
-564.50116474635433,0.800000011920929
-563.30323010658867,4.5999999046325684
-562.1055269127155,4.1999998092651367
-560.90805511805775,7.8000001907348633
-559.710814675951,3.4000000953674316
-558.513805539751,5
-557.31702766280978,3.2000000476837158
-556.12048099851017,-0.60000002384185791
-554.92416550022062,-7.4000000953674316
-553.72808112134589,-0.40000000596046448
-552.53222781529075,5
-551.33660553547088,6
-550.14121423531651,5.5999999046325684
-548.94605386826515,6.4000000953674316
-547.75112438777614,-3.4000000953674316
-546.55642574730518,3.4000000953674316
-545.361957900328,-3.2000000476837158
-544.167720800333,0.800000011920929
-542.97371440082134,-1.7999999523162842
-541.77993865529243,-4.8000001907348633
-540.58639351727652,1
-539.39307894030026,-2
-538.19999487790665,-2.4000000953674316
-537.00714128365507,-0.40000000596046448
-535.81451811110674,-1.6000000238418579
-534.622125313841,2.2000000476837158
-533.42996284544643,-4.5999999046325684
-532.23803065952234,-5.4000000953674316
-531.04632870968271,-5.1999998092651367
-529.85485694955059,-0.800000011920929
-528.66361533275631,-1
-527.47260381295564,-8.1999998092651367
-526.28182234379165,6.1999998092651367
-525.09127087894194,2.4000000953674316
-523.90094937208778,-4.1999998092651367
-522.71085777691223,4.8000001907348633
-521.52099604712748,-7
-520.33136413644206,-3.4000000953674316
-519.14196199858088,1.3999999761581421
-517.95278958728341,1
-516.76384685629819,-3.4000000953674316
-515.57513375937924,-2.2000000476837158
-514.38665025030423,-2
-513.19839628285263,1
-512.01037181081665,-6.5999999046325684
-510.82257678800124,0.60000002384185791
-509.63501116822226,-3
-508.44767490530649,-0.20000000298023224
-507.26056795309523,-5
-506.07369026543893,1.3999999761581421
-504.88704179619526,-0.40000000596046448
-503.70062249923831,0.40000000596046448
-502.51443232845486,-10.199999809265137
-501.32847123773354,-3.4000000953674316
-500.14273918098661,-1.3999999761581421
-498.95723611213,-3
-497.77196198509228,-2.7999999523162842
-496.58691675381124,0.60000002384185791
-495.40210037224642,-7.1999998092651367
-494.21751279435375,5.5999999046325684
-493.03315397410915,-4.5999999046325684
-491.84902386549584,-7
-490.665122422517,-4.4000000953674316
-489.48144959917408,-13.800000190734863
-488.29800534949027,1.7999999523162842
-487.11478962749243,-9.1999998092651367
-485.93180238722562,-8
-484.74904358273852,-3
-483.5665131681053,-3.5999999046325684
-482.38421109738738,-2.5999999046325684
-481.2021373246771,0.60000002384185791
-480.0202918040759,1
-478.83867448969067,-3.4000000953674316
-477.65728533564106,1.7999999523162842
-476.47612429605579,-7.8000001907348633
-475.2951913250854,3.5999999046325684
-474.11448637687681,-6.4000000953674316
-472.93400940559695,-0.60000002384185791
-471.75376036542184,-11.800000190734863
-470.57373921054023,-1.2000000476837158
-469.39394589515177,-7.8000001907348633
-468.21438037346343,-3.4000000953674316
-467.03504259970032,-9.1999998092651367
-465.8559325280894,-10.199999809265137
-464.67705011287944,-4.4000000953674316
-463.49839530831923,-7.5999999046325684
-462.31996806867937,-2.7999999523162842
-461.14176834823775,-8.6000003814697266
-459.96379610127588,-10
-458.78605128210074,-8.6000003814697266
-457.60853384501752,-4.4000000953674316
-456.43124374435138,-1.7999999523162842
-455.25418093443295,-5.4000000953674316
-454.07734536960925,-9.1999998092651367
-452.90073700422909,-11.800000190734863
-451.7243557926613,-9.8000001907348633
-450.54820168928381,-9
-449.37227464848911,-9
-448.19657462467148,-8.1999998092651367
-447.02110157224524,-11
-445.84585544562833,-1.6000000238418579
-444.67083619925324,-6.4000000953674316
-443.49604378757067,-4
-442.32147816503129,-12.800000190734863
-441.14713928610036,-12.600000381469727
-439.97302710525764,-10.800000190734863
-438.79914157698659,-10
-437.62548265579426,-11.800000190734863
-436.45205029618774,-10.399999618530273
-435.27884445268865,-12.399999618530273
-434.10586507982771,-17
-432.93311213215566,1.6000000238418579
-431.76058556421776,-13
-430.58828533058477,-15.800000190734863
-429.41621138583832,-3.2000000476837158
-428.24436368456008,-14.600000381469727
-427.07274218135353,-10.399999618530273
-425.90134683082943,-11
-424.73017758760216,-8.6000003814697266
-423.55923440631159,-4.1999998092651367
-422.38851724159576,-16.200000762939453
-421.21802604811455,-10.199999809265137
-420.04776078052782,-6
-418.87772139351546,-8.3999996185302734
-417.70790784176643,-10.399999618530273
-416.53832007998062,-2.5999999046325684
-415.36895806286157,-8
-414.19982174513279,-9.1999998092651367
-413.03091108152512,-5.8000001907348633
-411.86222602678754,-14.199999809265137
-410.69376653566542,-10
-409.52553256292776,-7.1999998092651367
-408.35752406334905,-4.8000001907348633
-407.18974099171828,-20.799999237060547
-406.02218330282813,-10.199999809265137
-404.85485095149124,-17.200000762939453
-403.68774389253122,-8.3999996185302734
-402.5208620807698,-16.200000762939453
-401.35420547105241,-14
-400.18777401823172,-15.600000381469727
-399.02156767717497,-18.600000381469727
-397.85558640275485,-9
-396.68983014985315,-19.600000381469727
-395.52429887336984,-16.399999618530273
-394.35899252820855,-12
-393.1939110692947,-14.800000190734863
-392.02905445155375,-15.399999618530273
-390.8644226299275,-10.399999618530273
-389.70001555936324,-14
-388.53583319482641,-16.600000381469727
-387.37187549128976,-14.399999618530273
-386.20814240373875,-11.399999618530273
-385.04463388716613,-3.2000000476837158
-383.8813498965792,-17.799999237060547
-382.71829038699252,-17.200000762939453
-381.55545531343887,-8.1999998092651367
-380.392844630951,-17
-379.23045829458351,-18.399999618530273
-378.06829625939463,-20.799999237060547
-376.90635848045895,-19.200000762939453
-375.74464491285289,-10.800000190734863
-374.58315551167289,-9
-373.42189023202263,-24
-372.26084902901857,-11.399999618530273
-371.10003185778623,-17.200000762939453
-369.93943867346024,-16.799999237060547
-368.77906943119342,-18.799999237060547
-367.61892408613858,-15
-366.45900259346672,-18.799999237060547
-365.29930490835977,-21.200000762939453
-364.13983098601057,-11.399999618530273
-362.98058078161557,-27.399999618530273
-361.82155425039127,-16.200000762939453
-360.66275134756324,-22.399999618530273
-359.5041720283607,-13.600000381469727
-358.34581624803286,-14.399999618530273
-357.18768396183805,-19.600000381469727
-356.02977512504185,-20.799999237060547
-354.87208969291896,-11.600000381469727
-353.71462762076044,-19.399999618530273
-352.55738886386462,-22.799999237060547
-351.400373377548,-17.200000762939453
-350.24358111712354,-23.200000762939453
-349.08701203792953,-14.800000190734863
-347.93066609530615,-25.600000381469727
-346.77454324460632,-19.200000762939453
-345.61864344119567,-24.399999618530273
-344.46296664044894,-11.800000190734863
-343.30751279775541,-17
-342.15228186851164,-20.600000381469727
-340.99727380812146,-14.399999618530273
-339.84248857200873,-12.800000190734863
-338.68792611559365,-17
-337.53358639432554,-18.799999237060547
-336.37946936365006,-11.199999809265137
-335.2255749790329,-5.1999998092651367
-334.07190319594883,-1.6000000238418579
-332.918453969869,7.4000000953674316
-331.76522725630093,9
-330.61222301074304,13.600000381469727
-329.45944118871012,9.1999998092651367
-328.30688174573515,7.5999999046325684
-327.15454463734568,5.4000000953674316
-326.00242981909287,-6
-324.85053724653517,-5.8000001907348633
-323.69886687524559,-7.5999999046325684
-322.54741866080076,-9.6000003814697266
-321.39619255879552,-11.800000190734863
-320.24518852482652,-22.200000762939453
-319.09440651450677,-23
-317.9438464834584,-17.799999237060547
-316.79350838731807,-15.800000190734863
-315.64339218173154,-21.399999618530273
-314.49349782234822,-15.399999618530273
-313.34382526483751,-20
-312.19437446487791,-25.399999618530273
-311.04514537814794,-15.600000381469727
-309.89613796035519,-27
-308.74735216720546,-18.600000381469727
-307.59878795441546,-23.399999618530273
-306.45044527772006,-13
-305.30232409285418,-13.399999618530273
-304.1544243555727,-19.600000381469727
-303.00674602163963,-16.200000762939453
-301.85928904682078,-19.200000762939453
-300.71205338690925,-20.600000381469727
-299.56503899768541,-24.200000762939453
-298.41824583496964,-18.200000762939453
-297.27167385456596,-22.399999618530273
-296.12532301230749,-27.399999618530273
-294.97919326402553,-18.399999618530273
-293.83328456556956,-16.799999237060547
-292.6875968728,-17.799999237060547
-291.54213014158267,-26
-290.39688432779803,-21
-289.25185938733557,-21
-288.10705527609389,-16.399999618530273
-286.96247194998614,-17.200000762939453
-285.81810936493457,-22
-284.67396747687235,-20.200000762939453
-283.53004624174173,-25.799999237060547
-282.38634561549406,-21.200000762939453
-281.24286555409708,-30.399999618530273
-280.09960601352395,-22.600000381469727
-278.95656694976424,-22.799999237060547
-277.81374831880566,-18.799999237060547
-276.67115007666143,-14.800000190734863
-275.52877217934838,-13.399999618530273
-274.38661458289062,-22
-273.24467724332862,-20.399999618530273
-272.10296011671562,-20.200000762939453
-270.961463159103,-24
-269.82018632656946,-14.399999618530273
-268.67912957519366,-24
-267.53829286106156,-17.799999237060547
-266.39767614028096,-21
-265.25727936895964,-19.200000762939453
-264.11710250322722,-14
-262.97714549921329,-18
-261.8374083130584,-22.200000762939453
-260.6978909009249,-20.799999237060547
-259.55859321897515,-19.799999237060547
-258.41951522338059,-25
-257.28065687033632,-17.399999618530273
-256.14201811603016,-14.600000381469727
-255.00359891667358,-19.399999618530273
-253.86539922848715,-18.200000762939453
-252.7274190076987,-20.399999618530273
-251.58965821054153,-23.399999618530273
-250.45211679326894,-23
-249.31479471214516,-20.200000762939453
-248.17769192343076,-24.600000381469727
-247.04080838342088,-12
-245.90414404839248,-18.399999618530273
-244.76769887465525,-13.600000381469727
-243.63147281852252,-25.799999237060547
-242.49546583631673,-12
-241.35967788436938,-20.799999237060547
-240.22410891902837,-14
-239.08875889664705,-20
-237.95362777358059,-12.800000190734863
-236.81871550621872,-11.600000381469727
-235.6840220509439,-16.600000381469727
-234.54954736414584,-13.800000190734863
-233.41529140224156,-14.199999809265137
-232.28125412163718,-14.199999809265137
-231.14743547876969,-14.600000381469727
-230.0138354300725,-10.600000381469727
-228.88045393199536,-12.600000381469727
-227.74729094100257,-10.199999809265137
-226.61434641355845,-12.600000381469727
-225.48162030614367,-10.199999809265137
-224.349112575248,-9
-223.21682317737577,-1
-222.08475206903313,-0.40000000596046448
-220.95289920674804,-1.3999999761581421
-219.82126454705212,0.800000011920929
-218.68984804648244,2
-217.5586496615997,-2.7999999523162842
-216.427669348961,-2.5999999046325684
-215.29690706514521,-2.7999999523162842
-214.16636276673125,-3.5999999046325684
-213.03603641032169,-2.5999999046325684
-211.90592795251541,-14.199999809265137
-210.77603734992772,0.40000000596046448
-209.64636455919026,-2.2000000476837158
-208.51690953693469,-12
-207.38767223980722,-12.800000190734863
-206.25865262447223,2.7999999523162842
-205.12985064758868,-0.20000000298023224
-204.00126626584097,2.2000000476837158
-202.87289943590986,-7.8000001907348633
-201.74475011450158,-7.8000001907348633
-200.61681825831874,4.8000001907348633
-199.48910382408758,-2.4000000953674316
-198.36160676853797,-2.2000000476837158
-197.23432704840525,-6.1999998092651367
-196.10726462043749,-2.2000000476837158
-194.98041944140277,2
-193.85379146806918,-7.4000000953674316
-192.72738065721751,1.6000000238418579
-191.6011869656395,1.6000000238418579
-190.47521035013779,1.3999999761581421
-189.34945076753138,-1
-188.22390817463383,-1
-187.09858252828053,-3.4000000953674316
-185.97347378531958,2.4000000953674316
-184.84858190259911,-4.1999998092651367
-183.72390683699086,4.8000001907348633
-182.59944854536116,2
-181.47520698460175,3.2000000476837158
-180.35118211159897,0.40000000596046448
-179.22737388326641,13.800000190734863
-178.1037822565213,8
-176.9804071882827,25.399999618530273
-175.85724863548785,18.600000381469727
-174.73430655509037,20.399999618530273
-173.61158090404206,35
-172.48907163931108,52.200000762939453
-171.36677871787106,62.400001525878906
-170.24470209671563,56.400001525878906
-169.12284173284024,65.199996948242188
-168.00119758325309,80
-166.8797696049769,80.800003051757813
-165.75855775503624,69
-164.6375619904702,73.5999984741211
-163.51678226832883,67
-162.39621854567667,82.800003051757813
-161.27587077957287,82.4000015258789
-160.15573892710927,91.199996948242188
-159.03582294536864,99.199996948242188
-157.91612279145556,108.19999694824219
-156.79663842247828,94.800003051757813
-155.67736979555957,83.4000015258789
-154.55831686783313,81.199996948242188
-153.43947959643447,79.5999984741211
-152.32085793852275,72.4000015258789
-151.20245185125532,68.199996948242188
-150.08426129180589,82.199996948242188
-148.96628621735545,77
-147.84852658509953,84.4000015258789
-146.73098235223915,94
-145.61365347598803,102
-144.49653991357081,94.4000015258789
-143.3796416222176,101
-142.26295855917488,112.19999694824219
-141.14649068169638,113.40000152587891
-140.03023794704677,117.59999847412109
-138.91420031250163,114
-137.79837773533836,131.19999694824219
-136.68277017286164,140.19999694824219
-135.56737758237068,143.80000305175781
-134.45219992117563,158.60000610351563
-133.33723714661573,180.19999694824219
-132.22248921601567,206.39999389648438
-131.10795608672197,216.60000610351563
-129.99363771609387,228.19999694824219
-128.87953406149063,269
-127.76564508029878,281.60000610351563
-126.65197072989395,300.39999389648438
-125.53851096768085,322
-124.4252657510624,317.39999389648438
-123.31223503745423,325.60000610351563
-122.19941878428472,332.20001220703125
-121.08681694899133,332
-119.97442948901517,337.39999389648438
-118.8622563618228,356.60000610351563
-117.75029752487717,364.20001220703125
-116.63855293565393,372.60000610351563
-115.52702255164331,407.39999389648438
-114.41570633034462,425.20001220703125
-113.30460422925898,442.20001220703125
-112.19371620590573,505.20001220703125
-111.08304221782055,508.20001220703125
-109.97258222253549,538
-108.86233617759535,566.5999755859375
-107.75230404056492,616.5999755859375
-106.64248576901082,655.20001220703125
-105.53288132051239,690.20001220703125
-104.42349065265807,731.5999755859375
-103.31431372304178,745.79998779296875
-102.20535048927377,793
-101.09660090898069,858
-99.988064939780088,926.20001220703125
-98.879742539320432,989.5999755859375
-97.771633665246554,1073.800048828125
-96.6637382752142,1133.199951171875
-95.556056326899125,1261.5999755859375
-94.448587777975263,1354.4000244140625
-93.34133258613474,1455.5999755859375
-92.234290709076959,1555.199951171875
-91.1274621045086,1728
-90.020846730150879,1882
-88.914444543732316,2021
-87.808255502995962,2073.199951171875
-86.7022795656867,2075
-85.596516689563941,1946.5999755859375
-84.490966832401682,1876.4000244140625
-83.385629951977535,1848
-82.280506006080032,1850.199951171875
-81.175594952508618,1904.4000244140625
-80.070896749077292,1985.800048828125
-78.966411353598232,2040.199951171875
-77.862138723905446,2105
-76.7580788178384,2183.39990234375
-75.654231593249278,2305
-74.550597007988472,2405.60009765625
-73.447175019935457,2590.800048828125
-72.3439655869679,2826.199951171875
-71.240968666974368,3044.60009765625
-70.138184217854359,3120
-69.035612197516457,3043.39990234375
-67.933252563881979,2944.199951171875
-66.831105274881338,2906.800048828125
-65.7291702884504,2975.39990234375
-64.62744756254142,3093
-63.525937055112081,3257.60009765625
-62.424638724134638,3374.800048828125
-61.323552527588618,3500.39990234375
-60.222678423459,3725.199951171875
-59.122016369747143,4113.60009765625
-58.02156632446713,4483
-56.92132824563123,4549.39990234375
-55.821302091271718,4365.39990234375
-54.721487819426329,3901.39990234375
-53.621885388145529,3557.800048828125
-52.522494755494336,3148.60009765625
-51.423315879526854,3036.199951171875
-50.324348718333567,3070.800048828125
-49.225593230001323,3598.39990234375
-48.12704937262788,4832
-47.028717104320094,6736.7998046875
-45.930596383199372,8143
-44.832687167392578,8183.7998046875
-43.734989415037489,7576.39990234375
-42.637503084284617,7773
-41.540228133289929,8998
-40.443164520223945,11133.599609375
-39.346312203260823,13028.400390625
-38.249671140592909,14360.7998046875
-37.153241290412552,14939.2001953125
-36.057022610932108,15497.400390625
-34.961015060369391,17428.599609375
-33.865218596949489,19795.80078125
-32.769633178906588,20396.599609375
-31.6742587644967,19758
-30.579095311970377,18176.599609375
-29.484142779594549,17487.80078125
-28.389401125643417,16677
-27.29487030841301,15380.400390625
-26.200550286193902,14155.2001953125
-25.106441017293037,12963.7998046875
-24.012542460020995,11812.7998046875
-22.918854572712007,10893.2001953125
-21.82537731370212,10430.400390625
-20.7321106413292,9764.7998046875
-19.639054513960218,9128.2001953125
-18.546208889949412,8047.7998046875
-17.453573727678304,7480.39990234375
-16.361148985530235,7057.7998046875
-15.268934621899461,6818.2001953125
-14.176930595191152,6471.39990234375
-13.085136863823209,6469.7998046875
-11.993553386213534,6258.39990234375
-10.902180120801859,6159
-9.8110170260297309,5939.7998046875
-8.720064060353252,5804.39990234375
-7.62932118223398,5589.60009765625
-6.5387883501425677,4891.60009765625
-5.448465522567858,3203
-4.3583526579986938,1411.5999755859375
-3.2684497149384697,273.60000610351563
-2.1787566519033135,156
-1.0892734274111717,146
0,270.39999389648438
1.0890636717958841,1138.199951171875
2.1779176294185163,2784.800048828125
3.266561914309932,4552.7998046875
4.354996567899434,5648.39990234375
5.443221631601773,5937.2001953125
6.5312371468298807,6220.60009765625
7.6190431549803179,6241
8.7066396974460076,6471.60009765625
9.7940268156035017,6679.60009765625
10.881204550825714,6862.2001953125
11.968172944472826,7155
13.054932037890467,7463.2001953125
14.141481872427903,7894.7998046875
15.227822489416212,8475.400390625
16.313953930162825,9424
17.399876235997,10378.2001953125
18.485589448209794,11216
19.571093608095907,11955.7998046875
20.656388756942761,12656.599609375
21.74147493601231,14023.400390625
22.826352186579243,15303
23.911020549890964,16772
24.995480067191238,18300.19921875
26.079730779716556,19500
27.163772728685217,20452.400390625
28.247605955324616,21824.599609375
29.331230500825768,23287.19921875
30.414646406390602,23643.400390625
31.49785371319922,22118
32.58085246243354,18970.19921875
33.663642695257295,17551.19921875
34.746224452830575,17134.400390625
35.828597776289826,16537.599609375
36.910762706780588,14807
37.992719285430212,12259.2001953125
39.074467553356953,10294.2001953125
40.156007551660878,9289.2001953125
41.237339321447507,9532.400390625
42.318462903804175,10295.599609375
43.39937833980548,9784
44.48008567053148,7758.60009765625
45.560584937029489,5471
46.6408761803541,4316.60009765625
47.720959441552623,3849.39990234375
48.80083476164873,3940
49.880502181658812,4208.60009765625
50.9599617426029,4744.7998046875
52.039213485481014,5324
53.118257451287718,5889.7998046875
54.197093680997568,6125
55.275722215592396,5971
56.354143096026746,5465
57.432356363258805,4965.2001953125
58.510362058235842,4773.39990234375
59.588160221886938,4621.2001953125
60.665750895142992,4518.39990234375
61.743134118913076,4262.60009765625
62.820309934106263,4070.800048828125
63.89727838161707,4046.800048828125
64.974039502334563,4111.60009765625
66.050593337131431,4323.60009765625
67.12693992687673,4406
68.203079312430418,4361.60009765625
69.2790115346379,4089.39990234375
70.354736634337314,3732.60009765625
71.43025465235587,3443.199951171875
72.505565629522607,3304.199951171875
73.580669606635638,3243.800048828125
74.655566624502171,3135.39990234375
75.730256723907587,3048.199951171875
76.804739945639085,2976.199951171875
77.879016330462036,2891
78.953085919145451,2846
80.026948752434691,2730.39990234375
81.10060487107512,2804
82.174054315803,2898
83.247297127336424,3063.60009765625
84.320333346397092,3191.39990234375
85.39316301368126,3212
86.465786169887,3064.199951171875
87.538202855701456,2887
88.610413111804519,2615.39990234375
89.682416978852416,2451.60009765625
90.754214497510475,2320.39990234375
91.825805708424014,2145
92.897190652229256,2065.800048828125
93.968369369558786,1885.800048828125
95.039341901027,1734.199951171875
96.110108287242838,1623.199951171875
97.180668568809779,1519.4000244140625
98.251022786316753,1429.199951171875
99.321170980345414,1329
100.39111319146468,1283.4000244140625
101.46084946023984,1227.800048828125
102.53037982722162,1189.5999755859375
103.59970433295166,1126.199951171875
104.66882301796431,1065
105.73773592278485,1039.199951171875
106.8064430879258,947.4000244140625
107.87494455389424,928
108.94324036118269,849.5999755859375
110.01133055028004,823.20001220703125
111.07921516166243,773
112.1468942357933,740
113.21436781313787,707.79998779296875
114.28163593413956,688.79998779296875
115.3486986392345,684.79998779296875
116.41555596884973,645.4000244140625
117.48220796341775,642.79998779296875
118.54865466334195,643.79998779296875
119.61489610901845,647.4000244140625
120.68093234084154,635.4000244140625
121.74676339919642,636
122.81238932445376,632.5999755859375
123.87781015697874,605.20001220703125
124.94302593711836,575.20001220703125
126.00803670522509,514.79998779296875
127.07284250162593,475
128.13744336665695,447
129.20183934062334,396.20001220703125
130.26603046383752,381.39999389648438
131.33001677659377,334.39999389648438
132.3937983191845,325.39999389648438
133.4573751318876,316.79998779296875
134.52074725496641,307.79998779296875
135.58391472868425,281.39999389648438
136.6468775932899,278.60000610351563
137.70963588902487,264.20001220703125
138.77218965612155,254.39999389648438
139.83453893480146,241.19999694824219
140.89668376527698,232.80000305175781
141.95862418775323,237.60000610351563
143.02036024241897,227.39999389648438
144.0818919694666,220.39999389648438
145.14321940906302,207.39999389648438
146.20434260137881,208.80000305175781
147.26526158656816,198
148.32597640478161,200.19999694824219
149.38648709615154,201
150.4467937008103,211.80000305175781
151.50689625887571,210.60000610351563
152.5667948104583,240.39999389648438
153.62648939565406,244.39999389648438
154.68598005455897,256.60000610351563
155.74526682725445,261.20001220703125
156.8043497538074,238.39999389648438
157.86322887428469,231.60000610351563
158.9219042287441,204
159.98037585721977,206.39999389648438
161.03864379975494,222.60000610351563
162.096708096371,209.60000610351563
163.15456878708392,206.80000305175781
164.21222591190417,214.39999389648438
165.2696795108277,201.60000610351563
166.32692962384135,203
167.38397629092287,185.39999389648438
168.4408195520482,164.19999694824219
169.4974594471696,145.80000305175781
170.55389601624302,126
171.61012929921162,110.40000152587891
172.66615933600406,100.80000305175781
173.7219861665435,90.5999984741211
174.7776098307495,68.800003051757813
175.83303036851612,70.199996948242188
176.88824781974836,74.4000015258789
177.94326222432755,58
178.99807362213323,59.200000762939453
180.05268205302673,44
181.10708755687847,46
182.16129017352432,49.400001525878906
183.21528994280743,37.599998474121094
184.26908690456366,31.399999618530273
185.32268109860706,48.799999237060547
186.37607256475167,53
187.42926134280606,38
188.482247472557,43.200000762939453
189.53503099378759,33.599998474121094
190.58761194627914,49
191.63999036979294,40.400001525878906
192.692166304083,34.599998474121094
193.7441397888997,39.200000762939453
194.79591086397886,47
195.8474795690563,37.400001525878906
196.89884594384057,37.200000762939453
197.95001002804929,43.799999237060547
199.00097186138009,36.200000762939453
200.05173148352878,31.600000381469727
201.10228893417116,37.799999237060547
202.15264425298847,43.200000762939453
203.2027974796365,34.200000762939453
204.25274865377651,35.799999237060547
205.30249781504972,31.799999237060547
206.35204500309737,35.200000762939453
207.4013902575407,36.599998474121094
208.45053361800274,31.200000762939453
209.49947512409562,37.799999237060547
210.54821481540785,28.600000381469727
211.59675273154062,35.799999237060547
212.64508891206788,37.200000762939453
213.69322339656719,38
214.74115622459976,32
215.78888743571224,44
216.83641706946219,43.200000762939453
217.88374516537988,40
218.93087176298468,41.799999237060547
219.97779690180323,38.200000762939453
221.02452062133852,35.200000762939453
222.0710429610881,32.400001525878906
223.11736396054403,31.399999618530273
224.16348365918566,20.399999618530273
225.2094020964887,18.399999618530273
226.25511931190886,15.399999618530273
227.3006353449,11
228.34595023491056,4.8000001907348633
229.39106402137622,7
230.43597674371449,-8
231.48068844134468,8
232.52519915367702,2.4000000953674316
233.569508920109,0.20000000298023224
234.61361778002538,-1.2000000476837158
235.65752577281455,2.2000000476837158
236.70123293784127,5.8000001907348633
237.74473931446664,-6.4000000953674316
238.78804494204451,5.5999999046325684
239.83114985991779,-3.4000000953674316
240.87405410742394,2.5999999046325684
241.91675772388407,-4.5999999046325684
242.95926074861745,-2.7999999523162842
244.00156322093062,-12.399999618530273
245.04366518011921,-0.20000000298023224
246.08556666547338,-11.199999809265137
247.12726771627604,-11.199999809265137
248.16876837179188,-8.1999998092651367
249.21006867128381,-14.399999618530273
250.25116865401105,-12.800000190734863
251.29206835920559,-16.200000762939453
252.33276782611392,-18.600000381469727
253.37326709395347,-24.399999618530273
254.41356620194165,-12
255.45366518928495,-22.200000762939453
256.49356409518441,-15.399999618530273
257.53326295883016,-17.600000381469727
258.57276181939596,-25.200000762939453
259.61206071605739,-14
260.65115968797545,-16.200000762939453
261.69005877429845,-13.600000381469727
262.72875801417831,-8.8000001907348633
263.76725744674513,-18.799999237060547
264.80555711111992,-7
265.84365704643096,-20
266.88155729177379,-23.799999237060547
267.91925788625122,-15.600000381469727
268.95675886895515,-19.600000381469727
269.99406027896839,-13.800000190734863
271.03116215535192,-19
272.06806453717945,-14
273.10476746349923,-18.600000381469727
274.14127097334858,-26.200000762939453
275.17757510577758,-20.399999618530273
276.21367989980354,-19.600000381469727
277.24958539444378,-26.200000762939453
278.28529162870836,-28.600000381469727
279.32079864159641,-22
280.35610647209614,-23.200000762939453
281.39121515919214,-20.799999237060547
282.42612474185262,-25.600000381469727
283.46083525904578,-17.600000381469727
284.49534674972347,-24.200000762939453
285.52965925283388,-20
286.56377280730703,-29.399999618530273
287.59768745207475,-29.399999618530273
288.63140322605432,-22.200000762939453
289.66492016815391,-28.799999237060547
290.6982383172799,-27.799999237060547
291.73135771231318,-30.399999618530273
292.76427839214739,-28.399999618530273
293.79700039564887,-31.600000381469727
294.82952376168032,-17
295.86184852910264,-26.200000762939453
296.89397473676581,-32.400001525878906
297.92590242349979,-28.399999618530273
298.95763162813637,-30.600000381469727
299.9891623894946,-28.399999618530273
301.02049474638625,-27.399999618530273
302.05162873761219,-26.600000381469727
303.082564401966,-32
304.1133017782322,-24.600000381469727
305.14384090518251,-34.400001525878906
306.1741818215869,-27
307.20432456620438,-22.200000762939453
308.23426917777579,-25
309.26401569504924,-29
310.29356415674738,-22.399999618530273
311.32291460160013,-26.399999618530273
312.35206706831377,-25
313.38102159559276,-18
314.40977822213063,-22.399999618530273
315.43833698661547,-23.600000381469727
316.46669792772627,-8.1999998092651367
317.49486108412748,-5.1999998092651367
318.52282649447989,7.5999999046325684
319.55059419743338,16.200000762939453
320.5781642316324,26
321.60553663570317,42.799999237060547
322.63271144827559,59.599998474121094
323.65968870795768,87
324.68646845335934,103.19999694824219
325.71305072307769,114.40000152587891
326.73943555570077,126.19999694824219
327.76562298980934,112.59999847412109
328.79161306396782,81.5999984741211
329.81740581674421,50.400001525878906
330.84300128668838,23.399999618530273
331.86839951234651,11.199999809265137
332.89360053224482,-10.600000381469727
333.9186043849204,-14.199999809265137
334.9434111088849,-27.200000762939453
335.96802074264451,-23.399999618530273
336.9924333247036,-29.399999618530273
338.016648893552,-30.600000381469727
339.04066748766672,-34.599998474121094
340.06448914552857,-32
341.08811390559458,-37.599998474121094
342.11154180632184,-36
343.13477288616014,-35.200000762939453
344.15780718354108,-35.799999237060547
345.1806447368981,-45.599998474121094
346.20328558465189,-33.799999237060547
347.22572976520678,-33.200000762939453
348.24797731697436,-26.399999618530273
349.2700282783444,-35.200000762939453
350.29188268769758,-45.200000762939453
351.3135405834164,-38.799999237060547
352.3350020038597,-36.799999237060547
353.35626698739179,-41
354.37733557236061,-40.599998474121094
355.39820779711044,-37.799999237060547
356.41888369996741,-38
357.43936331925579,-37.400001525878906
358.4596466932926,-34.400001525878906
359.47973386038029,-43.799999237060547
360.4996248588177,-35.599998474121094
361.51931972688908,-35.799999237060547
362.53881850287689,-41
363.55812122505267,-32.400001525878906
364.57722793167341,-39.200000762939453
365.59613866099608,-30.200000762939453
366.61485345126675,-38.400001525878906
367.63337234071332,-38.799999237060547
368.65169536756548,-36
369.66982257004383,-38.799999237060547
370.68775398635444,-44.599998474121094
371.70548965469789,-36.599998474121094
372.7230296132675,-41.400001525878906
373.74037390024205,-40.799999237060547
374.75752255379666,-37.599998474121094
375.7744756120992,-42.200000762939453
376.79123311330659,-31.799999237060547
377.80779509556305,-48.400001525878906
378.82416159700733,-34.599998474121094
379.84033265577273,-38.799999237060547
380.856308309978,-39.599998474121094
381.87208859774,-43.799999237060547
382.88767355716118,-46
383.90306322633296,-31.799999237060547
384.918257643345,-36
385.933256846276,-40.799999237060547
386.94806087319375,-30
387.96266976215884,-36.200000762939453
388.97708355122268,-36.799999237060547
389.99130227842943,-43.200000762939453
391.005325981816,-36.799999237060547
392.01915469940104,-38
393.03278846921057,-35
394.04622732924145,-49.200000762939453
395.05947131750145,-39
396.072520471982,-41
397.08537483066175,-43
398.09803443151395,-38
399.11049931250454,-42.200000762939453
400.12276951158856,-38.799999237060547
401.13484506671739,-37.200000762939453
402.14672601582424,-33.400001525878906
403.15841239684596,-30.399999618530273
404.16990424769574,-41.400001525878906
405.18120160629041,-39
406.19230451053772,-38.200000762939453
407.20321299832722,-33.599998474121094
408.21392710754844,-35.799999237060547
409.22444687608004,-38
410.2347723417879,-36.400001525878906
411.24490354253794,-30.399999618530273
412.25484051617786,-39.200000762939453
413.26458330055357,-36.799999237060547
414.27413193350003,-27.799999237060547
415.28348645284314,-40.599998474121094
416.29264689639967,-38
417.30161330197734,-36.799999237060547
418.310385707382,-31.799999237060547
419.31896415039773,-37.200000762939453
420.327348668814,-43.200000762939453
421.33553930040034,-31.600000381469727
422.34353608292622,-38
423.35133905414659,-28.799999237060547
424.35894825181094,-36.799999237060547
425.366363713656,-37.799999237060547
426.37358547742224,-36.400001525878906
427.38061358082268,-41.400001525878906
428.38744806157592,-30.600000381469727
429.39408895738779,-30.200000762939453
430.40053630595321,-36.599998474121094
431.40679014495618,-29.799999237060547
432.41285051209161,-39.599998474121094
433.41871744501259,-29.200000762939453
434.42439098139221,-37.400001525878906
435.42987115888172,-39.400001525878906
436.43515801512694,-34.599998474121094
437.4402515877664,-37.200000762939453
438.44515191442224,-32.599998474121094
439.44985903272209,-40.200000762939453
440.45437298026809,-35.599998474121094
441.45869379467149,-35.200000762939453
442.4628215135217,-42.599998474121094
443.46675617440451,-41.200000762939453
444.47049781489659,-30.799999237060547
445.47404647256735,-40
446.47740218497347,-38.799999237060547
447.480564989668,-36.400001525878906
448.483534924193,-33.799999237060547
449.48631202608703,-35.200000762939453
450.48889633286853,-39
451.49128788205962,-37.599998474121094
452.49348671116604,-39
453.49549285768262,-34
454.49730635911328,-38.799999237060547
455.49892725292921,-36
456.50035557661067,-33.599998474121094
457.50159136762159,-34.799999237060547
458.50263466341676,-37.599998474121094
459.503485501451,-32.400001525878906
460.50414391915729,-27.200000762939453
461.50460995397043,-25.799999237060547
462.5048836433125,-27.200000762939453
463.50496502460373,-35.799999237060547
464.50485413524257,-24.600000381469727
465.50455101262742,-24
466.50405569415489,-23.799999237060547
467.50336821719429,-25.200000762939453
468.50248861912587,-10.199999809265137
469.50141693731166,2.7999999523162842
470.50015320910279,0.20000000298023224
471.49869747185039,7.4000000953674316
472.49704976288922,-1.3999999761581421
473.49521011955221,-3.2000000476837158
474.49317857915776,-10.399999618530273
475.49095517901515,-19.399999618530273
476.48853995643731,-23.600000381469727
477.48593294871353,-16.200000762939453
478.48313419313126,-32.400001525878906
479.48014372697253,-26.399999618530273
480.47696158750477,-32.200000762939453
481.47358781198818,-33.599998474121094
482.47002243768111,-31.399999618530273
483.46626550182373,-31.200000762939453
484.46231704165621,-31.200000762939453
485.45817709440053,-41.599998474121094
486.45384569728049,-31.399999618530273
487.44932288750715,-33.400001525878906
488.44460870228249,-38
489.43970317880303,-28.399999618530273
490.4346063542489,-37.400001525878906
491.42931826580025,-29.200000762939453
492.4238389506263,-38.799999237060547
493.41816844588539,-29
494.41230678873217,-36.400001525878906
495.40625401630859,-39.599998474121094
496.40001016574752,-34
497.39357527418179,-44.200000762939453
498.3869493787206,-35.599998474121094
499.3801325164859,-30
500.37312472456688,-31.200000762939453
501.36592604006182,-35.400001525878906
502.35853650005447,-30.200000762939453
503.35095614162128,-36
504.34318500183144,-39.400001525878906
505.33522311774323,-26.799999237060547
506.32707052640581,-36.799999237060547
507.3187272648629,-33.200000762939453
508.31019337014914,-37.599998474121094
509.30146887928822,-29.600000381469727
510.29255382930023,-31.600000381469727
511.28344825719068,-40.200000762939453
512.27415219996328,-30.799999237060547
513.26466569460717,-31.600000381469727
514.25498877810969,-31.399999618530273
515.24512148744543,-28.600000381469727
516.23506385957626,-35.200000762939453
517.22481593147131,-28.200000762939453
518.214377740067,-33.599998474121094
519.20374932231425,-26.600000381469727
520.19293071514585,-31.399999618530273
521.18192195548909,-33.400001525878906
522.17072308025308,-37.400001525878906
523.15933412635422,-29.399999618530273
524.14775513068525,-32
525.13598613014619,-34.200000762939453
526.12402716160977,-28
527.11187826196146,-33.599998474121094
528.09953946806127,-30
529.08701081677282,-29.600000381469727
530.07429234493793,-29.399999618530273
531.06138408940751,-29.799999237060547
532.048286087007,-21
533.03499837456729,-18.399999618530273
534.0215209889011,-24.200000762939453
535.00785396682113,-25.600000381469727
535.99399734512008,-31.600000381469727
536.97995116059792,-24
537.965715450031,-32.400001525878906
538.95129025019924,-31.600000381469727
539.93667559786809,-34
540.921871529792,-28.200000762939453
541.90687808272924,-29
542.89169529341052,-33.599998474121094
543.87632319857767,-32.400001525878906
544.86076183495788,-30.399999618530273
545.84501123925838,-29
546.82907144819546,-30.799999237060547
547.8129424984636,-35
548.7966244267609,-32.599998474121094
549.78011726976547,-26.200000762939453
550.76342106415723,-29.399999618530273
551.74653584660155,-30.799999237060547
552.7294616537547,-32.400001525878906
553.71219852227114,-24.799999237060547
554.69474648879077,-35.799999237060547
555.677105589948,-25
556.65927586237194,-31.399999618530273
557.64125734267327,-29.799999237060547
558.62305006746465,-33
559.604654073346,-32
560.58606939691163,-29.600000381469727
561.56729607475063,-39.400001525878906
562.54833414342647,-26.399999618530273
563.5291836395154,-34
564.50984459957726,-27.200000762939453
565.490317060161,-34.400001525878906
566.4706010578102,-29.399999618530273
567.450696629061,-25.799999237060547
568.43060381044052,-31.600000381469727
569.41032263846137,-7.5999999046325684
570.38985314963975,-6.8000001907348633
571.36919538047732,-0.20000000298023224
572.348349367463,-1.3999999761581421
573.32731514708939,-17.200000762939453
574.30609275582538,-19.399999618530273
575.28468223014534,-32.799999237060547
576.26308360651274,-22.399999618530273
577.24129692136921,-29.399999618530273
578.219322211171,-30.200000762939453
579.197159512345,-26.799999237060547
580.17480886132762,-29.200000762939453
581.15227029453308,-29
582.12954384837394,-33
583.10662955925181,-30.399999618530273
584.08352746356286,-31
585.06023759769778,-27.600000381469727
586.03675999802908,-40.599998474121094
587.01309470092929,-27
587.98924174276181,-29.399999618530273
588.965201159881,-34.200000762939453
589.940972988632,-29.600000381469727
590.916557265351,-33.200000762939453
591.89195402637051,-24.600000381469727
592.86716330800846,-25.399999618530273
593.84218514657914,-32.799999237060547
594.81701957839141,-32.200000762939453
595.79166663973774,-33
596.76612636690516,-31
597.74039879617885,-28.399999618530273
598.71448396382948,-31.799999237060547
599.68838190611859,-33
600.66209265930229,-28.200000762939453
601.63561625963666,-22.600000381469727
602.60895274334871,-34
603.58210214668,-26
604.55506450584653,-32.200000762939453
605.52783985706992,-35.400001525878906
606.50042823655167,-29.200000762939453
607.472829680497,-26
608.44504422508908,-26.799999237060547
609.41707190651687,-28
610.38891276095092,-30.399999618530273
611.36056682456,-32
612.332034133502,-21.600000381469727
613.3033147239239,-33.200000762939453
614.2744086319708,-13.600000381469727
615.24531589377693,-28.600000381469727
616.216036545462,-29.600000381469727
617.18657062315287,-26.200000762939453
618.15691816295475,-30.600000381469727
619.12707920096727,-23.200000762939453
620.09705377328282,-32.200000762939453
621.06684191599379,-29.200000762939453
622.03644366517074,-24
623.0058590568824,-29.399999618530273
623.97508812719207,-28.399999618530273
624.94413091215029,-28.399999618530273
625.912987447804,-29.600000381469727
626.88165777019094,-25.799999237060547
627.85014191533446,-24
628.81843991925962,-29.200000762939453
629.78655181797694,-28.799999237060547
630.75447764748969,-32.799999237060547
631.72221744379385,-26.399999618530273
632.68977124288176,-30.799999237060547
633.65713908072576,-25.799999237060547
634.62432099330545,-27
635.59131701657861,-28.200000762939453
636.55812718650486,-25.399999618530273
637.52475153902742,-28.200000762939453
638.49119011009134,-22.399999618530273
639.45744293562529,-22.399999618530273
640.42351005155251,-34
641.38939149379257,-29.399999618530273
642.355087298245,-22.399999618530273
643.32059750081135,-21.600000381469727
644.28592213738557,-26.399999618530273
645.25106124385456,-24.200000762939453
646.216014856087,-26.399999618530273
647.18078300994785,-29.600000381469727
648.1453657413058,-26.200000762939453
649.10976308600038,-25
650.07397507988208,-26.200000762939453
651.03800175878678,-28.399999618530273
652.00184315853767,-17.200000762939453
652.96549931495247,-32.200000762939453
653.92897026384526,-20.399999618530273
654.89225604101739,-33
655.85535668226476,-28.399999618530273
656.81827222337415,-28.799999237060547
657.78100270012328,-30.600000381469727
658.74354814828257,-27
659.70590860361335,-22
660.66808410187514,-24.200000762939453
661.63007467881289,-26.399999618530273
662.59188037016247,-18.600000381469727
663.55350121165611,-18.200000762939453
664.514937239017,-27.399999618530273
665.47618848796083,-25
666.4372549941927,-28.799999237060547
667.39813679341023,-31.799999237060547
668.35883392130745,-33.799999237060547
669.31934641356565,-29.399999618530273
670.27967430585886,-30
671.23981763385382,-33
672.19977643321,-22.600000381469727
673.15955073957775,-32.400001525878906
674.119140588602,-26
675.07854601591134,-32.599998474121094
676.03776705714154,-27.799999237060547
676.99680374790478,-23.600000381469727
677.95565612381506,-19.399999618530273
678.91432422047183,-34.200000762939453
679.87280807347634,-24
680.83110771841166,-21.799999237060547
681.78922319085541,-30.799999237060547
682.74715452638156,-25.799999237060547
683.70490176055318,-25
684.66246492892424,-18.399999618530273
