-777.74687133807856,5.5999999046325684
-776.50770429765,2.7999999523162842
-775.26877705141487,-1.3999999761581421
-774.03008955063888,1.3999999761581421
-772.79164174658763,7.1999998092651367
-771.55343359055223,5
-770.31546503381287,2.4000000953674316
-769.07773602767884,0.60000002384185791
-767.8402465234667,7
-766.60299647250758,1.7999999523162842
-765.36598582614351,4.5999999046325684
-764.12921453572744,0
-762.89268255262323,9.8000001907348633
-761.65638982821292,1.3999999761581421
-760.42033631388222,4.4000000953674316
-759.184521961035,4.1999998092651367
-757.948946721086,-1.7999999523162842
-756.71361054546833,2.2000000476837158
-755.47851338560758,-2.2000000476837158
-754.24365519296589,4.8000001907348633
-753.009035918998,-4.1999998092651367
-751.77465551518071,4.4000000953674316
-750.5405139330087,2.4000000953674316
-749.30661112396592,4.8000001907348633
-748.0729470395836,-2
-746.8395216313711,1.3999999761581421
-745.60633485086328,-1.2000000476837158
-744.3733866496168,4.1999998092651367
-743.14067697918108,3.5999999046325684
-741.90820579113461,-1.2000000476837158
-740.67597303705952,1
-739.44397866855252,3.5999999046325684
-738.21222263721756,-0.800000011920929
-736.98070489468046,2.2000000476837158
-735.749425392567,6.1999998092651367
-734.51838408252479,3.4000000953674316
-733.28758091621239,2
-732.057015845292,-2.4000000953674316
-730.82668882144753,1.7999999523162842
-729.59659979637036,-1.6000000238418579
-728.366748721759,3.2000000476837158
-727.13713554934475,7
-725.90776023084072,7.4000000953674316
-724.67862271799277,-1.2000000476837158
-723.449722962554,2.2000000476837158
-722.22106091628848,0.60000002384185791
-720.99263653096386,3.5999999046325684
-719.76444975838785,0.800000011920929
-718.53650055034268,3.7999999523162842
-717.308788858647,3.2000000476837158
-716.08131463512655,1.6000000238418579
-714.85407783161827,-1.2000000476837158
-713.62707839996983,0
-712.40031629203258,2
-711.17379145969062,-4.1999998092651367
-709.94750385482075,5.4000000953674316
-708.72145342932527,0.800000011920929
-707.49564013510644,2.5999999046325684
-706.27006392408839,0.60000002384185791
-705.04472474819522,0
-703.81962255938379,0
-702.59475730959639,5.4000000953674316
-701.3701289508117,2.4000000953674316
-700.14573743500478,-3.4000000953674316
-698.9215827141652,-2.7999999523162842
-697.69766474030075,2.5999999046325684
-696.47398346541922,3
-695.25053884156114,1.2000000476837158
-694.02733082075611,1.2000000476837158
-692.80435935505557,-5.8000001907348633
-691.58162439652915,-0.40000000596046448
-690.35912589724649,-0.20000000298023224
-689.13686380929175,-5.4000000953674316
-687.91483808476733,-0.20000000298023224
-686.69304867578649,-0.20000000298023224
-685.47149553447343,-3.5999999046325684
-684.25017861295237,-5
-683.02909786337659,1.6000000238418579
-681.80825323790668,5.5999999046325684
-680.5876446887105,7.5999999046325684
-679.3672721679668,-8
-678.14713562787256,1.6000000238418579
-676.92723502063564,-2.4000000953674316
-675.70757029846391,1.6000000238418579
-674.48814141360162,-3.2000000476837158
-673.26894831827849,-5.8000001907348633
-672.04999096475331,1.7999999523162842
-670.83126930528488,-4.1999998092651367
-669.61278329215747,3
-668.39453287765537,1
-667.176518014081,0.20000000298023224
-665.95873865374051,-1
-664.7411947489727,-3.5999999046325684
-663.5238862520946,3.5999999046325684
-662.30681311546687,-4.1999998092651367
-661.0899752914429,1.3999999761581421
-659.87337273240155,-2.7999999523162842
-658.6570053907144,0.800000011920929
-657.44087321878942,-2.5999999046325684
-656.22497616902,-3
-655.009314193836,-2
-653.79388724565979,1
-652.57869527693947,2.4000000953674316
-651.363738240123,-5.1999998092651367
-650.14901608768014,3.7999999523162842
-648.93452877208438,-2.4000000953674316
-647.720276245831,0
-646.5062584614152,1.6000000238418579
-645.29247537135416,-8
-644.078926928165,3
-642.86561308439377,-0.40000000596046448
-641.65253379257956,-4.1999998092651367
-640.43968900529035,-7
-639.22707867508689,-6.4000000953674316
-638.01470275456631,-2.7999999523162842
-636.80256119630758,-2.4000000953674316
-635.590653952926,-0.20000000298023224
-634.37898097704056,3.5999999046325684
-633.16754222128111,-4.5999999046325684
-631.95633763828118,1.3999999761581421
-630.745367180707,-7.4000000953674316
-629.534630801214,-4.1999998092651367
-628.32412845248655,-2.4000000953674316
-627.11386008720547,-11.399999618530273
-625.9038256580734,-4.8000001907348633
-624.69402511780754,-3.5999999046325684
-623.48445841912508,-6.4000000953674316
-622.27512551476138,-1
-621.0660263574664,-3.5999999046325684
-619.85716089999733,-0.60000002384185791
-618.64852909512592,-1.7999999523162842
-617.44013089563123,1.2000000476837158
-616.2319662543141,-0.800000011920929
-615.0240351239645,-4
-613.81633745741237,-4.8000001907348633
-612.60887320749134,-3.4000000953674316
-611.40164232702409,-6.5999999046325684
-610.194644768877,-3.4000000953674316
-608.98788048590177,-1
-607.781349430983,2.7999999523162842
-606.57505155700892,-9.1999998092651367
-605.36898681687126,-3.2000000476837158
-604.1631551634764,-6.8000001907348633
-602.95755654975983,-10
-601.75219092864245,-6.1999998092651367
-600.54705825307065,-0.40000000596046448
-599.34215847600535,-3
-598.13749155041478,-5
-596.93305742927441,-4.8000001907348633
-595.72885606557793,-5.4000000953674316
-594.52488741232992,-3.4000000953674316
-593.32115142254224,-6
-592.117648049245,0.60000002384185791
-590.91437724546449,-7.8000001907348633
-589.71133896426,-7.4000000953674316
-588.50853315869062,-8.3999996185302734
-587.30595978182646,1.6000000238418579
-586.10361878675576,-3
-584.90151012657043,-2.7999999523162842
-583.69963375437328,-11.600000381469727
-582.49798962329442,-9.6000003814697266
-581.296577686453,-4.1999998092651367
-580.09539789699556,-8
-578.894450208074,-8.3999996185302734
-577.69373457285474,-4.1999998092651367
-576.4932509445116,-2.7999999523162842
-575.29299927623651,-2.2000000476837158
-574.09297952122142,-6.8000001907348633
-572.89319163268192,-3.2000000476837158
-571.69363556384451,-6.1999998092651367
-570.49431126793752,-9.8000001907348633
-569.29521869820383,-4
-568.09635780790632,-9.8000001907348633
-566.89772855030969,-11
-565.69933087869686,-4.5999999046325684
-564.50116474635433,-4
-563.30323010658867,-9.6000003814697266
-562.1055269127155,-7.5999999046325684
-560.90805511805775,-3.2000000476837158
-559.710814675951,-9.8000001907348633
-558.513805539751,-3.7999999523162842
-557.31702766280978,-9.3999996185302734
-556.12048099851017,-4.1999998092651367
-554.92416550022062,-9.1999998092651367
-553.72808112134589,-7.8000001907348633
-552.53222781529075,-4.8000001907348633
-551.33660553547088,-9.6000003814697266
-550.14121423531651,-6.8000001907348633
-548.94605386826515,-1.2000000476837158
-547.75112438777614,-7.8000001907348633
-546.55642574730518,-1
-545.361957900328,-10.199999809265137
-544.167720800333,-4.5999999046325684
-542.97371440082134,-7.1999998092651367
-541.77993865529243,-7.5999999046325684
-540.58639351727652,-7.8000001907348633
-539.39307894030026,-9
-538.19999487790665,-10.399999618530273
-537.00714128365507,-9.3999996185302734
-535.81451811110674,-9.8000001907348633
-534.622125313841,-5
-533.42996284544643,-12.600000381469727
-532.23803065952234,-10
-531.04632870968271,-6.5999999046325684
-529.85485694955059,-19.200000762939453
-528.66361533275631,-7.1999998092651367
-527.47260381295564,-12.800000190734863
-526.28182234379165,-6.4000000953674316
-525.09127087894194,-5.8000001907348633
-523.90094937208778,-13
-522.71085777691223,-7.1999998092651367
-521.52099604712748,-14.800000190734863
-520.33136413644206,-10.199999809265137
-519.14196199858088,-8.1999998092651367
-517.95278958728341,-7.1999998092651367
-516.76384685629819,-5.8000001907348633
-515.57513375937924,-11
-514.38665025030423,-7.5999999046325684
-513.19839628285263,-8.8000001907348633
-512.01037181081665,-11.399999618530273
-510.82257678800124,-5.8000001907348633
-509.63501116822226,-7.5999999046325684
-508.44767490530649,-12.600000381469727
-507.26056795309523,-14.199999809265137
-506.07369026543893,-8.3999996185302734
-504.88704179619526,-7.5999999046325684
-503.70062249923831,-10.399999618530273
-502.51443232845486,-8.3999996185302734
-501.32847123773354,-15.800000190734863
-500.14273918098661,-6.8000001907348633
-498.95723611213,-13.800000190734863
-497.77196198509228,-12.800000190734863
-496.58691675381124,-10.800000190734863
-495.40210037224642,-12.399999618530273
-494.21751279435375,-7.8000001907348633
-493.03315397410915,-12.800000190734863
-491.84902386549584,-10
-490.665122422517,-11.800000190734863
-489.48144959917408,-12.600000381469727
-488.29800534949027,-5.5999999046325684
-487.11478962749243,-17.799999237060547
-485.93180238722562,-13.800000190734863
-484.74904358273852,-9
-483.5665131681053,-16
-482.38421109738738,-13.199999809265137
-481.2021373246771,-10
-480.0202918040759,-5
-478.83867448969067,-14.600000381469727
-477.65728533564106,-11
-476.47612429605579,-17.200000762939453
-475.2951913250854,-9.1999998092651367
-474.11448637687681,-16.799999237060547
-472.93400940559695,-13.600000381469727
-471.75376036542184,-15.600000381469727
-470.57373921054023,-11.800000190734863
-469.39394589515177,-16.399999618530273
-468.21438037346343,-13.600000381469727
-467.03504259970032,-11.399999618530273
-465.8559325280894,-17.600000381469727
-464.67705011287944,-17.600000381469727
-463.49839530831923,-10.199999809265137
-462.31996806867937,-13
-461.14176834823775,-14.800000190734863
-459.96379610127588,-19.200000762939453
-458.78605128210074,-14.199999809265137
-457.60853384501752,-13.199999809265137
-456.43124374435138,-14.399999618530273
-455.25418093443295,-13
-454.07734536960925,-15.399999618530273
-452.90073700422909,-20.799999237060547
-451.7243557926613,-20.600000381469727
-450.54820168928381,-16.200000762939453
-449.37227464848911,-16.600000381469727
-448.19657462467148,-15.800000190734863
-447.02110157224524,-20.399999618530273
-445.84585544562833,-9.3999996185302734
-444.67083619925324,-19
-443.49604378757067,-14
-442.32147816503129,-18.799999237060547
-441.14713928610036,-18.600000381469727
-439.97302710525764,-15.800000190734863
-438.79914157698659,-10.800000190734863
-437.62548265579426,-22.799999237060547
-436.45205029618774,-19.600000381469727
-435.27884445268865,-19.399999618530273
-434.10586507982771,-18.399999618530273
-432.93311213215566,-15.800000190734863
-431.76058556421776,-17.399999618530273
-430.58828533058477,-20
-429.41621138583832,-13.800000190734863
-428.24436368456008,-16
-427.07274218135353,-15.600000381469727
-425.90134683082943,-15.600000381469727
-424.73017758760216,-12.199999809265137
-423.55923440631159,-19
-422.38851724159576,-22.600000381469727
-421.21802604811455,-22.799999237060547
-420.04776078052782,-12.199999809265137
-418.87772139351546,-18.399999618530273
-417.70790784176643,-18.799999237060547
-416.53832007998062,-14
-415.36895806286157,-20.200000762939453
-414.19982174513279,-16
-413.03091108152512,-19
-411.86222602678754,-19
-410.69376653566542,-11.199999809265137
-409.52553256292776,-17.200000762939453
-408.35752406334905,-12.399999618530273
-407.18974099171828,-28.799999237060547
-406.02218330282813,-20.600000381469727
-404.85485095149124,-26.799999237060547
-403.68774389253122,-19
-402.5208620807698,-24.200000762939453
-401.35420547105241,-19.200000762939453
-400.18777401823172,-24.399999618530273
-399.02156767717497,-23.799999237060547
-397.85558640275485,-20.200000762939453
-396.68983014985315,-27
-395.52429887336984,-24.600000381469727
-394.35899252820855,-18.399999618530273
-393.1939110692947,-22
-392.02905445155375,-19
-390.8644226299275,-16.399999618530273
-389.70001555936324,-23.600000381469727
-388.53583319482641,-28.600000381469727
-387.37187549128976,-18.799999237060547
-386.20814240373875,-23
-385.04463388716613,-10.399999618530273
-383.8813498965792,-26.399999618530273
-382.71829038699252,-23.200000762939453
-381.55545531343887,-14.399999618530273
-380.392844630951,-32
-379.23045829458351,-23.200000762939453
-378.06829625939463,-30.799999237060547
-376.90635848045895,-26.399999618530273
-375.74464491285289,-21.200000762939453
-374.58315551167289,-19.600000381469727
-373.42189023202263,-30.399999618530273
-372.26084902901857,-16.399999618530273
-371.10003185778623,-24.600000381469727
-369.93943867346024,-26.200000762939453
-368.77906943119342,-24.799999237060547
-367.61892408613858,-20.600000381469727
-366.45900259346672,-24.200000762939453
-365.29930490835977,-26.200000762939453
-364.13983098601057,-25
-362.98058078161557,-24.200000762939453
-361.82155425039127,-25.600000381469727
-360.66275134756324,-25.600000381469727
-359.5041720283607,-26.799999237060547
-358.34581624803286,-20.600000381469727
-357.18768396183805,-34.400001525878906
-356.02977512504185,-22.799999237060547
-354.87208969291896,-22.600000381469727
-353.71462762076044,-26.600000381469727
-352.55738886386462,-34.400001525878906
-351.400373377548,-23.399999618530273
-350.24358111712354,-20.799999237060547
-349.08701203792953,-23.200000762939453
-347.93066609530615,-29.799999237060547
-346.77454324460632,-24.399999618530273
-345.61864344119567,-25
-344.46296664044894,-23
-343.30751279775541,-27.200000762939453
-342.15228186851164,-29.799999237060547
-340.99727380812146,-17.399999618530273
-339.84248857200873,-24.200000762939453
-338.68792611559365,-27.200000762939453
-337.53358639432554,-25.799999237060547
-336.37946936365006,-22.799999237060547
-335.2255749790329,-21
-334.07190319594883,-20.600000381469727
-332.918453969869,-19.600000381469727
-331.76522725630093,-13
-330.61222301074304,-19
-329.45944118871012,-14.600000381469727
-328.30688174573515,-21.200000762939453
-327.15454463734568,-24
-326.00242981909287,-24
-324.85053724653517,-20.399999618530273
-323.69886687524559,-18.600000381469727
-322.54741866080076,-29.600000381469727
-321.39619255879552,-25.200000762939453
-320.24518852482652,-27.600000381469727
-319.09440651450677,-31.799999237060547
-317.9438464834584,-29.399999618530273
-316.79350838731807,-26.200000762939453
-315.64339218173154,-32
-314.49349782234822,-23.200000762939453
-313.34382526483751,-31.600000381469727
-312.19437446487791,-36.400001525878906
-311.04514537814794,-19.799999237060547
-309.89613796035519,-32
-308.74735216720546,-28.200000762939453
-307.59878795441546,-32.799999237060547
-306.45044527772006,-16.399999618530273
-305.30232409285418,-26
-304.1544243555727,-29.399999618530273
-303.00674602163963,-28.799999237060547
-301.85928904682078,-34.599998474121094
-300.71205338690925,-33.400001525878906
-299.56503899768541,-30
-298.41824583496964,-24.600000381469727
-297.27167385456596,-31.600000381469727
-296.12532301230749,-31.799999237060547
-294.97919326402553,-28.799999237060547
-293.83328456556956,-24.399999618530273
-292.6875968728,-29
-291.54213014158267,-26.200000762939453
-290.39688432779803,-31.600000381469727
-289.25185938733557,-32.200000762939453
-288.10705527609389,-24.600000381469727
-286.96247194998614,-26
-285.81810936493457,-28
-284.67396747687235,-32.599998474121094
-283.53004624174173,-29
-282.38634561549406,-33.400001525878906
-281.24286555409708,-40.400001525878906
-280.09960601352395,-32.200000762939453
-278.95656694976424,-38
-277.81374831880566,-25
-276.67115007666143,-28.399999618530273
-275.52877217934838,-25.200000762939453
-274.38661458289062,-27.600000381469727
-273.24467724332862,-31
-272.10296011671562,-30.799999237060547
-270.961463159103,-34.799999237060547
-269.82018632656946,-31.799999237060547
-268.67912957519366,-33.400001525878906
-267.53829286106156,-28
-266.39767614028096,-37
-265.25727936895964,-35.400001525878906
-264.11710250322722,-30.600000381469727
-262.97714549921329,-24.799999237060547
-261.8374083130584,-40
-260.6978909009249,-31.200000762939453
-259.55859321897515,-31
-258.41951522338059,-33.400001525878906
-257.28065687033632,-33
-256.14201811603016,-26.200000762939453
-255.00359891667358,-32.799999237060547
-253.86539922848715,-40.799999237060547
-252.7274190076987,-31.799999237060547
-251.58965821054153,-39.200000762939453
-250.45211679326894,-34
-249.31479471214516,-36.400001525878906
-248.17769192343076,-33.599998474121094
-247.04080838342088,-24.200000762939453
-245.90414404839248,-30
-244.76769887465525,-34.799999237060547
-243.63147281852252,-38.200000762939453
-242.49546583631673,-33.599998474121094
-241.35967788436938,-31
-240.22410891902837,-23
-239.08875889664705,-35.200000762939453
-237.95362777358059,-35.599998474121094
-236.81871550621872,-30.799999237060547
-235.6840220509439,-35.400001525878906
-234.54954736414584,-27
-233.41529140224156,-35.200000762939453
-232.28125412163718,-27.200000762939453
-231.14743547876969,-28.799999237060547
-230.0138354300725,-30.200000762939453
-228.88045393199536,-31.399999618530273
-227.74729094100257,-34.400001525878906
-226.61434641355845,-27.200000762939453
-225.48162030614367,-36.799999237060547
-224.349112575248,-34.599998474121094
-223.21682317737577,-25.600000381469727
-222.08475206903313,-24.399999618530273
-220.95289920674804,-22.399999618530273
-219.82126454705212,-28.399999618530273
-218.68984804648244,-25.399999618530273
-217.5586496615997,-27
-216.427669348961,-34.200000762939453
-215.29690706514521,-28.600000381469727
-214.16636276673125,-33.599998474121094
-213.03603641032169,-30
-211.90592795251541,-36.400001525878906
-210.77603734992772,-35.400001525878906
-209.64636455919026,-34.599998474121094
-208.51690953693469,-39.400001525878906
-207.38767223980722,-38.200000762939453
-206.25865262447223,-30.799999237060547
-205.12985064758868,-23.799999237060547
-204.00126626584097,-29.799999237060547
-202.87289943590986,-35.599998474121094
-201.74475011450158,-35
-200.61681825831874,-32.400001525878906
-199.48910382408758,-33.200000762939453
-198.36160676853797,-29.200000762939453
-197.23432704840525,-30.600000381469727
-196.10726462043749,-31.799999237060547
-194.98041944140277,-35.799999237060547
-193.85379146806918,-24
-192.72738065721751,-34.200000762939453
-191.6011869656395,-28.200000762939453
-190.47521035013779,-34
-189.34945076753138,-29.600000381469727
-188.22390817463383,-33.599998474121094
-187.09858252828053,-32.400001525878906
-185.97347378531958,-30
-184.84858190259911,-31.799999237060547
-183.72390683699086,-24.799999237060547
-182.59944854536116,-31.200000762939453
-181.47520698460175,-36
-180.35118211159897,-36.799999237060547
-179.22737388326641,-22.399999618530273
-178.1037822565213,-32
-176.9804071882827,-21.399999618530273
-175.85724863548785,-29.799999237060547
-174.73430655509037,-20.200000762939453
-173.61158090404206,-19.799999237060547
-172.48907163931108,-14.800000190734863
-171.36677871787106,-2.7999999523162842
-170.24470209671563,-5.8000001907348633
-169.12284173284024,-4.8000001907348633
-168.00119758325309,-3.2000000476837158
-166.8797696049769,-13.800000190734863
-165.75855775503624,-14.399999618530273
-164.6375619904702,-11
-163.51678226832883,-11.800000190734863
-162.39621854567667,-10.199999809265137
-161.27587077957287,-4.1999998092651367
-160.15573892710927,0
-159.03582294536864,-1.6000000238418579
-157.91612279145556,5.4000000953674316
-156.79663842247828,2.4000000953674316
-155.67736979555957,-7.1999998092651367
-154.55831686783313,-10
-153.43947959643447,-5
-152.32085793852275,-12
-151.20245185125532,-11.800000190734863
-150.08426129180589,-3.7999999523162842
-148.96628621735545,3.2000000476837158
-147.84852658509953,-4.5999999046325684
-146.73098235223915,-0.800000011920929
-145.61365347598803,0.60000002384185791
-144.49653991357081,-4.5999999046325684
-143.3796416222176,-2.5999999046325684
-142.26295855917488,5.5999999046325684
-141.14649068169638,0.800000011920929
-140.03023794704677,-2.7999999523162842
-138.91420031250163,7.5999999046325684
-137.79837773533836,5
-136.68277017286164,10.199999809265137
-135.56737758237068,5.8000001907348633
-134.45219992117563,12.800000190734863
-133.33723714661573,21.799999237060547
-132.22248921601567,33.599998474121094
-131.10795608672197,45.400001525878906
-129.99363771609387,52
-128.87953406149063,62.599998474121094
-127.76564508029878,68.199996948242188
-126.65197072989395,65.800003051757813
-125.53851096768085,65.4000015258789
-124.4252657510624,67
-123.31223503745423,63.799999237060547
-122.19941878428472,68.199996948242188
-121.08681694899133,64.199996948242188
-119.97442948901517,66.4000015258789
-118.8622563618228,65
-117.75029752487717,78
-116.63855293565393,72.4000015258789
-115.52702255164331,80.800003051757813
-114.41570633034462,93.4000015258789
-113.30460422925898,92.4000015258789
-112.19371620590573,118.59999847412109
-111.08304221782055,122.80000305175781
-109.97258222253549,133.39999389648438
-108.86233617759535,145
-107.75230404056492,159.39999389648438
-106.64248576901082,163.19999694824219
-105.53288132051239,176.80000305175781
-104.42349065265807,190
-103.31431372304178,203.60000610351563
-102.20535048927377,218.39999389648438
-101.09660090898069,245
-99.988064939780088,275.39999389648438
-98.879742539320432,282.20001220703125
-97.771633665246554,314.60000610351563
-96.6637382752142,339.79998779296875
-95.556056326899125,400.20001220703125
-94.448587777975263,411
-93.34133258613474,436.39999389648438
-92.234290709076959,500
-91.1274621045086,567
-90.020846730150879,647
-88.914444543732316,715
-87.808255502995962,719.79998779296875
-86.7022795656867,668.5999755859375
-85.596516689563941,617.4000244140625
-84.490966832401682,605
-83.385629951977535,578.20001220703125
-82.280506006080032,585.79998779296875
-81.175594952508618,623.20001220703125
-80.070896749077292,652
-78.966411353598232,670.4000244140625
-77.862138723905446,681
-76.7580788178384,724.79998779296875
-75.654231593249278,736.5999755859375
-74.550597007988472,811.20001220703125
-73.447175019935457,915.79998779296875
-72.3439655869679,1022.4000244140625
-71.240968666974368,1064.4000244140625
-70.138184217854359,1054
-69.035612197516457,1011
-67.933252563881979,973.4000244140625
-66.831105274881338,1006.7999877929688
-65.7291702884504,1069.800048828125
-64.62744756254142,1164.5999755859375
-63.525937055112081,1224.5999755859375
-62.424638724134638,1226.5999755859375
-61.323552527588618,1255.199951171875
-60.222678423459,1357.800048828125
-59.122016369747143,1554.800048828125
-58.02156632446713,1710.800048828125
-56.92132824563123,1708.800048828125
-55.821302091271718,1564.199951171875
-54.721487819426329,1360.199951171875
-53.621885388145529,1166.800048828125
-52.522494755494336,989.20001220703125
-51.423315879526854,960.20001220703125
-50.324348718333567,1071.4000244140625
-49.225593230001323,1452
-48.12704937262788,2162.60009765625
-47.028717104320094,2981.39990234375
-45.930596383199372,3325.800048828125
-44.832687167392578,3015.800048828125
-43.734989415037489,2637.39990234375
-42.637503084284617,2964.800048828125
-41.540228133289929,3620.60009765625
-40.443164520223945,4339.2001953125
-39.346312203260823,4697.2001953125
-38.249671140592909,4775
-37.153241290412552,4786.39990234375
-36.057022610932108,5269.7998046875
-34.961015060369391,6565.7998046875
-33.865218596949489,7938.60009765625
-32.769633178906588,8388.7998046875
-31.6742587644967,8335.400390625
-30.579095311970377,8035.39990234375
-29.484142779594549,8162
-28.389401125643417,7978.60009765625
-27.29487030841301,7327.39990234375
-26.200550286193902,6584
-25.106441017293037,5844
-24.012542460020995,5163.60009765625
-22.918854572712007,4641.39990234375
-21.82537731370212,4315
-20.7321106413292,4026.60009765625
-19.639054513960218,3624.39990234375
-18.546208889949412,3094.60009765625
-17.453573727678304,2840.800048828125
-16.361148985530235,2613.39990234375
-15.268934621899461,2465.800048828125
-14.176930595191152,2369
-13.085136863823209,2337.199951171875
-11.993553386213534,2251.39990234375
-10.902180120801859,2219.60009765625
-9.8110170260297309,2109.39990234375
-8.720064060353252,2039.199951171875
-7.62932118223398,1971.800048828125
-6.5387883501425677,1753.199951171875
-5.448465522567858,1168.800048828125
-4.3583526579986938,527.79998779296875
-3.2684497149384697,173.39999389648438
-2.1787566519033135,127.80000305175781
-1.0892734274111717,128.19999694824219
0,183.39999389648438
1.0890636717958841,430.20001220703125
2.1779176294185163,1040.199951171875
3.266561914309932,1636.199951171875
4.354996567899434,1940.4000244140625
5.443221631601773,2057.60009765625
6.5312371468298807,2172.800048828125
7.6190431549803179,2261.800048828125
8.7066396974460076,2353.199951171875
9.7940268156035017,2477.800048828125
10.881204550825714,2558.60009765625
11.968172944472826,2647.800048828125
13.054932037890467,2830.800048828125
14.141481872427903,3054.60009765625
15.227822489416212,3338.800048828125
16.313953930162825,3771
17.399876235997,4379
18.485589448209794,4795.7998046875
19.571093608095907,5247.7998046875
20.656388756942761,5668
21.74147493601231,6509.7998046875
22.826352186579243,7396.2001953125
23.911020549890964,8310.599609375
24.995480067191238,9226.400390625
26.079730779716556,9801.7998046875
27.163772728685217,9919.599609375
28.247605955324616,10026.2001953125
29.331230500825768,10322.400390625
30.414646406390602,10216.2001953125
31.49785371319922,9335.599609375
32.58085246243354,7368.7998046875
33.663642695257295,6300.60009765625
34.746224452830575,6018.2001953125
35.828597776289826,6117.60009765625
36.910762706780588,6013
37.992719285430212,5322.39990234375
39.074467553356953,4379.39990234375
40.156007551660878,3757.199951171875
41.237339321447507,3643.39990234375
42.318462903804175,4187.2001953125
43.39937833980548,4488.7998046875
44.48008567053148,3858.199951171875
45.560584937029489,2618.800048828125
46.6408761803541,1798.4000244140625
47.720959441552623,1418
48.80083476164873,1370.800048828125
49.880502181658812,1492.5999755859375
50.9599617426029,1724.4000244140625
52.039213485481014,2012.800048828125
53.118257451287718,2338
54.197093680997568,2527.199951171875
55.275722215592396,2517
56.354143096026746,2332
57.432356363258805,2026.800048828125
58.510362058235842,1890.5999755859375
59.588160221886938,1855.5999755859375
60.665750895142992,1862.800048828125
61.743134118913076,1816.800048828125
62.820309934106263,1673.5999755859375
63.89727838161707,1582.5999755859375
64.974039502334563,1545.4000244140625
66.050593337131431,1590
67.12693992687673,1674.5999755859375
68.203079312430418,1747.5999755859375
69.2790115346379,1690.4000244140625
70.354736634337314,1534.199951171875
71.43025465235587,1359
72.505565629522607,1274.199951171875
73.580669606635638,1238.5999755859375
74.655566624502171,1211.4000244140625
75.730256723907587,1176
76.804739945639085,1151.4000244140625
77.879016330462036,1116
78.953085919145451,1072.5999755859375
80.026948752434691,1061.199951171875
81.10060487107512,1057
82.174054315803,1114.800048828125
83.247297127336424,1193.5999755859375
84.320333346397092,1306.800048828125
85.39316301368126,1335.5999755859375
86.465786169887,1315.5999755859375
87.538202855701456,1151.199951171875
88.610413111804519,1048.5999755859375
89.682416978852416,940
90.754214497510475,867
91.825805708424014,799.5999755859375
92.897190652229256,761
93.968369369558786,727
95.039341901027,652.79998779296875
96.110108287242838,598.4000244140625
97.180668568809779,538.79998779296875
98.251022786316753,514.20001220703125
99.321170980345414,469.20001220703125
100.39111319146468,435.79998779296875
101.46084946023984,416
102.53037982722162,403.79998779296875
103.59970433295166,376.39999389648438
104.66882301796431,368.79998779296875
105.73773592278485,349.39999389648438
106.8064430879258,347.60000610351563
107.87494455389424,316.20001220703125
108.94324036118269,296
110.01133055028004,273.79998779296875
111.07921516166243,244
112.1468942357933,241.60000610351563
113.21436781313787,232.19999694824219
114.28163593413956,215.19999694824219
115.3486986392345,213.19999694824219
116.41555596884973,208.39999389648438
117.48220796341775,199
118.54865466334195,198
119.61489610901845,191.19999694824219
120.68093234084154,200.60000610351563
121.74676339919642,205.80000305175781
122.81238932445376,227.19999694824219
123.87781015697874,220.39999389648438
124.94302593711836,213.80000305175781
126.00803670522509,205
127.07284250162593,181
128.13744336665695,152.80000305175781
129.20183934062334,127.80000305175781
130.26603046383752,116.40000152587891
131.33001677659377,103.19999694824219
132.3937983191845,88.4000015258789
133.4573751318876,81.4000015258789
134.52074725496641,85.5999984741211
135.58391472868425,74.4000015258789
136.6468775932899,73.4000015258789
137.70963588902487,65.4000015258789
138.77218965612155,68.4000015258789
139.83453893480146,63.400001525878906
140.89668376527698,66.5999984741211
141.95862418775323,68.800003051757813
143.02036024241897,63.400001525878906
144.0818919694666,62
145.14321940906302,56.400001525878906
146.20434260137881,63.400001525878906
147.26526158656816,56.400001525878906
148.32597640478161,54.200000762939453
149.38648709615154,46.400001525878906
150.4467937008103,56.599998474121094
151.50689625887571,59.599998474121094
152.5667948104583,71.5999984741211
153.62648939565406,86.800003051757813
154.68598005455897,90.4000015258789
155.74526682725445,99
156.8043497538074,87.199996948242188
157.86322887428469,69.5999984741211
158.9219042287441,61.200000762939453
159.98037585721977,47.400001525878906
161.03864379975494,69
162.096708096371,62.599998474121094
163.15456878708392,69.800003051757813
164.21222591190417,73.800003051757813
165.2696795108277,76.5999984741211
166.32692962384135,72.199996948242188
167.38397629092287,71
168.4408195520482,61
169.4974594471696,41.799999237060547
170.55389601624302,34.799999237060547
171.61012929921162,26
172.66615933600406,14.800000190734863
173.7219861665435,11.199999809265137
174.7776098307495,6.8000001907348633
175.83303036851612,-7
176.88824781974836,-2.5999999046325684
177.94326222432755,-1
178.99807362213323,-14
180.05268205302673,-15.800000190734863
181.10708755687847,-12.600000381469727
182.16129017352432,-12
183.21528994280743,-20.799999237060547
184.26908690456366,-17.200000762939453
185.32268109860706,-7.5999999046325684
186.37607256475167,-12.399999618530273
187.42926134280606,-18.200000762939453
188.482247472557,-15
189.53503099378759,-18.799999237060547
190.58761194627914,-7.5999999046325684
191.63999036979294,-16.200000762939453
192.692166304083,-17.200000762939453
193.7441397888997,-17
194.79591086397886,-6.8000001907348633
195.8474795690563,-8.1999998092651367
196.89884594384057,-17
197.95001002804929,-15.399999618530273
199.00097186138009,-16
200.05173148352878,-16
201.10228893417116,-14.600000381469727
202.15264425298847,-12.600000381469727
203.2027974796365,-14.800000190734863
204.25274865377651,-18
205.30249781504972,-15.399999618530273
206.35204500309737,-19.799999237060547
207.4013902575407,-23
208.45053361800274,-16.799999237060547
209.49947512409562,-9
210.54821481540785,-9.3999996185302734
211.59675273154062,-11.399999618530273
212.64508891206788,-9.3999996185302734
213.69322339656719,-3.4000000953674316
214.74115622459976,-8.8000001907348633
215.78888743571224,-7.5999999046325684
216.83641706946219,1.2000000476837158
217.88374516537988,-0.40000000596046448
218.93087176298468,11.399999618530273
219.97779690180323,0.20000000298023224
221.02452062133852,6.1999998092651367
222.0710429610881,-1.3999999761581421
223.11736396054403,1.2000000476837158
224.16348365918566,-7.8000001907348633
225.2094020964887,-16.600000381469727
226.25511931190886,-13
227.3006353449,-10.199999809265137
228.34595023491056,-21.200000762939453
229.39106402137622,-18.799999237060547
230.43597674371449,-23.399999618530273
231.48068844134468,-23.799999237060547
232.52519915367702,-27.799999237060547
233.569508920109,-25.399999618530273
234.61361778002538,-24
235.65752577281455,-27
236.70123293784127,-26.399999618530273
237.74473931446664,-31
238.78804494204451,-24.200000762939453
239.83114985991779,-23.399999618530273
240.87405410742394,-21.600000381469727
241.91675772388407,-24
242.95926074861745,-23.200000762939453
244.00156322093062,-30.200000762939453
245.04366518011921,-26
246.08556666547338,-29.200000762939453
247.12726771627604,-28
248.16876837179188,-25.600000381469727
249.21006867128381,-35
250.25116865401105,-36.599998474121094
251.29206835920559,-36.599998474121094
252.33276782611392,-34.799999237060547
253.37326709395347,-25.799999237060547
254.41356620194165,-31.799999237060547
255.45366518928495,-34.599998474121094
256.49356409518441,-29
257.53326295883016,-31
258.57276181939596,-40.200000762939453
259.61206071605739,-27.799999237060547
260.65115968797545,-28
261.69005877429845,-30.799999237060547
262.72875801417831,-27.799999237060547
263.76725744674513,-28.600000381469727
264.80555711111992,-24.200000762939453
265.84365704643096,-32.400001525878906
266.88155729177379,-31.799999237060547
267.91925788625122,-30.200000762939453
268.95675886895515,-33.200000762939453
269.99406027896839,-27
271.03116215535192,-30.200000762939453
272.06806453717945,-30.799999237060547
273.10476746349923,-24
274.14127097334858,-34.799999237060547
275.17757510577758,-28
276.21367989980354,-33.599998474121094
277.24958539444378,-32.599998474121094
278.28529162870836,-29.200000762939453
279.32079864159641,-35
280.35610647209614,-35.599998474121094
281.39121515919214,-35
282.42612474185262,-36
283.46083525904578,-29.200000762939453
284.49534674972347,-30
285.52965925283388,-32.400001525878906
286.56377280730703,-32
287.59768745207475,-31
288.63140322605432,-33.400001525878906
289.66492016815391,-36.799999237060547
290.6982383172799,-32.799999237060547
291.73135771231318,-29.799999237060547
292.76427839214739,-36.200000762939453
293.79700039564887,-36
294.82952376168032,-34.400001525878906
295.86184852910264,-28
296.89397473676581,-37
297.92590242349979,-34.200000762939453
298.95763162813637,-34.799999237060547
299.9891623894946,-37
301.02049474638625,-32.599998474121094
302.05162873761219,-31.600000381469727
303.082564401966,-36.200000762939453
304.1133017782322,-33.799999237060547
305.14384090518251,-36.799999237060547
306.1741818215869,-31.799999237060547
307.20432456620438,-33.799999237060547
308.23426917777579,-39.200000762939453
309.26401569504924,-33.200000762939453
310.29356415674738,-35.400001525878906
311.32291460160013,-35.200000762939453
312.35206706831377,-34.599998474121094
313.38102159559276,-24.399999618530273
314.40977822213063,-32.400001525878906
315.43833698661547,-34.200000762939453
316.46669792772627,-26
317.49486108412748,-23.200000762939453
318.52282649447989,-20.200000762939453
319.55059419743338,-17.399999618530273
320.5781642316324,-7.4000000953674316
321.60553663570317,-0.800000011920929
322.63271144827559,12.600000381469727
323.65968870795768,20
324.68646845335934,31.600000381469727
325.71305072307769,43.799999237060547
326.73943555570077,52.200000762939453
327.76562298980934,41
328.79161306396782,33.799999237060547
329.81740581674421,25
330.84300128668838,2.5999999046325684
331.86839951234651,-10
332.89360053224482,-22.200000762939453
333.9186043849204,-27.799999237060547
334.9434111088849,-32.200000762939453
335.96802074264451,-36.799999237060547
336.9924333247036,-31
338.016648893552,-34
339.04066748766672,-36.400001525878906
340.06448914552857,-33
341.08811390559458,-41
342.11154180632184,-39.200000762939453
343.13477288616014,-42.400001525878906
344.15780718354108,-38.200000762939453
345.1806447368981,-37.400001525878906
346.20328558465189,-34.400001525878906
347.22572976520678,-40
348.24797731697436,-31.399999618530273
349.2700282783444,-38.400001525878906
350.29188268769758,-34
351.3135405834164,-43.200000762939453
352.3350020038597,-31.799999237060547
353.35626698739179,-37.200000762939453
354.37733557236061,-38.599998474121094
355.39820779711044,-38.200000762939453
356.41888369996741,-37.400001525878906
357.43936331925579,-39.799999237060547
358.4596466932926,-30.799999237060547
359.47973386038029,-37.799999237060547
360.4996248588177,-42.200000762939453
361.51931972688908,-35.400001525878906
362.53881850287689,-44.400001525878906
363.55812122505267,-37.599998474121094
364.57722793167341,-41
365.59613866099608,-27.600000381469727
366.61485345126675,-40.400001525878906
367.63337234071332,-44.799999237060547
368.65169536756548,-42.599998474121094
369.66982257004383,-42.599998474121094
370.68775398635444,-38.400001525878906
371.70548965469789,-37.400001525878906
372.7230296132675,-45.400001525878906
373.74037390024205,-36.799999237060547
374.75752255379666,-30.799999237060547
375.7744756120992,-40.799999237060547
376.79123311330659,-36.200000762939453
377.80779509556305,-43.400001525878906
378.82416159700733,-34
379.84033265577273,-38
380.856308309978,-38.799999237060547
381.87208859774,-42.200000762939453
382.88767355716118,-43.200000762939453
383.90306322633296,-39
384.918257643345,-34.799999237060547
385.933256846276,-39.400001525878906
386.94806087319375,-27.399999618530273
387.96266976215884,-36.799999237060547
388.97708355122268,-38.200000762939453
389.99130227842943,-37.200000762939453
391.005325981816,-40.200000762939453
392.01915469940104,-36.799999237060547
393.03278846921057,-34
394.04622732924145,-41.200000762939453
395.05947131750145,-35.200000762939453
396.072520471982,-42.400001525878906
397.08537483066175,-34.799999237060547
398.09803443151395,-37
399.11049931250454,-41.799999237060547
400.12276951158856,-39.599998474121094
401.13484506671739,-33.799999237060547
402.14672601582424,-32.200000762939453
403.15841239684596,-36
404.16990424769574,-37.599998474121094
405.18120160629041,-39.200000762939453
406.19230451053772,-34.200000762939453
407.20321299832722,-40.799999237060547
408.21392710754844,-30.399999618530273
409.22444687608004,-35.599998474121094
410.2347723417879,-37.599998474121094
411.24490354253794,-35
412.25484051617786,-33.599998474121094
413.26458330055357,-39.799999237060547
414.27413193350003,-25.799999237060547
415.28348645284314,-44.799999237060547
416.29264689639967,-33.599998474121094
417.30161330197734,-37
418.310385707382,-37.200000762939453
419.31896415039773,-32.599998474121094
420.327348668814,-38.400001525878906
421.33553930040034,-31.799999237060547
422.34353608292622,-31
423.35133905414659,-37.599998474121094
424.35894825181094,-31.399999618530273
425.366363713656,-35.599998474121094
426.37358547742224,-30.200000762939453
427.38061358082268,-43
428.38744806157592,-27.399999618530273
429.39408895738779,-32.599998474121094
430.40053630595321,-35.799999237060547
431.40679014495618,-34.599998474121094
432.41285051209161,-40
433.41871744501259,-35.599998474121094
434.42439098139221,-36.599998474121094
435.42987115888172,-30.600000381469727
436.43515801512694,-34.400001525878906
437.4402515877664,-36.799999237060547
438.44515191442224,-27.399999618530273
439.44985903272209,-40.599998474121094
440.45437298026809,-32.400001525878906
441.45869379467149,-29.600000381469727
442.4628215135217,-34.799999237060547
443.46675617440451,-35.599998474121094
444.47049781489659,-32.599998474121094
445.47404647256735,-33.599998474121094
446.47740218497347,-36.200000762939453
447.480564989668,-35.599998474121094
448.483534924193,-33.400001525878906
449.48631202608703,-36.799999237060547
450.48889633286853,-33.400001525878906
451.49128788205962,-34.799999237060547
452.49348671116604,-36.599998474121094
453.49549285768262,-32.799999237060547
454.49730635911328,-29.600000381469727
455.49892725292921,-35.200000762939453
456.50035557661067,-32.200000762939453
457.50159136762159,-29.799999237060547
458.50263466341676,-30.799999237060547
459.503485501451,-26.799999237060547
460.50414391915729,-33.400001525878906
461.50460995397043,-24
462.5048836433125,-28.399999618530273
463.50496502460373,-35.799999237060547
464.50485413524257,-19
465.50455101262742,-24
466.50405569415489,-31.399999618530273
467.50336821719429,-26
468.50248861912587,-22.399999618530273
469.50141693731166,-7.1999998092651367
470.50015320910279,-12.800000190734863
471.49869747185039,-17.600000381469727
472.49704976288922,-14.600000381469727
473.49521011955221,-14.600000381469727
474.49317857915776,-12.600000381469727
475.49095517901515,-20.399999618530273
476.48853995643731,-28.200000762939453
477.48593294871353,-25.799999237060547
478.48313419313126,-34
479.48014372697253,-23.399999618530273
480.47696158750477,-32.200000762939453
481.47358781198818,-31
482.47002243768111,-25
483.46626550182373,-31.399999618530273
484.46231704165621,-35.799999237060547
485.45817709440053,-33
486.45384569728049,-28
487.44932288750715,-33.799999237060547
488.44460870228249,-35.400001525878906
489.43970317880303,-24.600000381469727
490.4346063542489,-31.399999618530273
491.42931826580025,-27.799999237060547
492.4238389506263,-30.200000762939453
493.41816844588539,-30.200000762939453
494.41230678873217,-27.200000762939453
495.40625401630859,-33.599998474121094
496.40001016574752,-27.200000762939453
497.39357527418179,-35.200000762939453
498.3869493787206,-33.799999237060547
499.3801325164859,-22.399999618530273
500.37312472456688,-33.799999237060547
501.36592604006182,-34.799999237060547
502.35853650005447,-21.600000381469727
503.35095614162128,-34.200000762939453
504.34318500183144,-31
505.33522311774323,-24.200000762939453
506.32707052640581,-29.200000762939453
507.3187272648629,-32.799999237060547
508.31019337014914,-38.200000762939453
509.30146887928822,-29.200000762939453
510.29255382930023,-28.399999618530273
511.28344825719068,-34.400001525878906
512.27415219996328,-23
513.26466569460717,-26.399999618530273
514.25498877810969,-28.600000381469727
515.24512148744543,-32
516.23506385957626,-21.600000381469727
517.22481593147131,-33.200000762939453
518.214377740067,-26.600000381469727
519.20374932231425,-17.600000381469727
520.19293071514585,-37.599998474121094
521.18192195548909,-26.200000762939453
522.17072308025308,-37.799999237060547
523.15933412635422,-29.399999618530273
524.14775513068525,-32.599998474121094
525.13598613014619,-33.799999237060547
526.12402716160977,-27.600000381469727
527.11187826196146,-32
528.09953946806127,-24.600000381469727
529.08701081677282,-24.600000381469727
530.07429234493793,-27
531.06138408940751,-34.599998474121094
532.048286087007,-19
533.03499837456729,-25.799999237060547
534.0215209889011,-19
535.00785396682113,-26.799999237060547
535.99399734512008,-30.399999618530273
536.97995116059792,-29.600000381469727
537.965715450031,-23.600000381469727
538.95129025019924,-33.799999237060547
539.93667559786809,-28
540.921871529792,-25.799999237060547
541.90687808272924,-31.799999237060547
542.89169529341052,-30.799999237060547
543.87632319857767,-30.200000762939453
544.86076183495788,-27.399999618530273
545.84501123925838,-24.399999618530273
546.82907144819546,-27.600000381469727
547.8129424984636,-24.799999237060547
548.7966244267609,-30
549.78011726976547,-26.200000762939453
550.76342106415723,-22.600000381469727
551.74653584660155,-18.799999237060547
552.7294616537547,-34
553.71219852227114,-23.399999618530273
554.69474648879077,-23.600000381469727
555.677105589948,-21
556.65927586237194,-29
557.64125734267327,-29.799999237060547
558.62305006746465,-25.399999618530273
559.604654073346,-29
560.58606939691163,-25.399999618530273
561.56729607475063,-34
562.54833414342647,-27.799999237060547
563.5291836395154,-27.399999618530273
564.50984459957726,-19.200000762939453
565.490317060161,-25.799999237060547
566.4706010578102,-22.799999237060547
567.450696629061,-24.200000762939453
568.43060381044052,-28
569.41032263846137,-18
570.38985314963975,-2.7999999523162842
571.36919538047732,-2.7999999523162842
572.348349367463,-9.8000001907348633
573.32731514708939,-24
574.30609275582538,-20.799999237060547
575.28468223014534,-30.399999618530273
576.26308360651274,-22.600000381469727
577.24129692136921,-20.799999237060547
578.219322211171,-22.399999618530273
579.197159512345,-21.200000762939453
580.17480886132762,-25
581.15227029453308,-27.600000381469727
582.12954384837394,-30.399999618530273
583.10662955925181,-23.200000762939453
584.08352746356286,-27.399999618530273
585.06023759769778,-28
586.03675999802908,-34.799999237060547
587.01309470092929,-22.600000381469727
587.98924174276181,-26.200000762939453
588.965201159881,-26.799999237060547
589.940972988632,-21.799999237060547
590.916557265351,-27
591.89195402637051,-24
592.86716330800846,-21.200000762939453
593.84218514657914,-27.200000762939453
594.81701957839141,-21.600000381469727
595.79166663973774,-23.600000381469727
596.76612636690516,-24.799999237060547
597.74039879617885,-26
598.71448396382948,-30.399999618530273
599.68838190611859,-20.399999618530273
600.66209265930229,-24.399999618530273
601.63561625963666,-16.200000762939453
602.60895274334871,-27.600000381469727
603.58210214668,-21.600000381469727
604.55506450584653,-28.799999237060547
605.52783985706992,-29
606.50042823655167,-20.399999618530273
607.472829680497,-22.200000762939453
608.44504422508908,-21.600000381469727
609.41707190651687,-23.799999237060547
610.38891276095092,-22.200000762939453
611.36056682456,-30
612.332034133502,-21.399999618530273
613.3033147239239,-19.799999237060547
614.2744086319708,-13.199999809265137
615.24531589377693,-23.600000381469727
616.216036545462,-18.600000381469727
617.18657062315287,-27.200000762939453
618.15691816295475,-27.600000381469727
619.12707920096727,-21
620.09705377328282,-21.200000762939453
621.06684191599379,-22.799999237060547
622.03644366517074,-16.600000381469727
623.0058590568824,-28.600000381469727
623.97508812719207,-24.799999237060547
624.94413091215029,-26
625.912987447804,-24.600000381469727
626.88165777019094,-16.399999618530273
627.85014191533446,-21.399999618530273
628.81843991925962,-29.799999237060547
629.78655181797694,-23.799999237060547
630.75447764748969,-29.200000762939453
631.72221744379385,-25.399999618530273
632.68977124288176,-23.799999237060547
633.65713908072576,-19.799999237060547
634.62432099330545,-22.799999237060547
635.59131701657861,-23.600000381469727
636.55812718650486,-22.200000762939453
637.52475153902742,-27.399999618530273
638.49119011009134,-23.399999618530273
639.45744293562529,-14.600000381469727
640.42351005155251,-27.399999618530273
641.38939149379257,-22.399999618530273
642.355087298245,-24
643.32059750081135,-15.600000381469727
644.28592213738557,-23.200000762939453
645.25106124385456,-16.200000762939453
646.216014856087,-26.600000381469727
647.18078300994785,-23
648.1453657413058,-23.399999618530273
649.10976308600038,-19
650.07397507988208,-23.600000381469727
651.03800175878678,-24.799999237060547
652.00184315853767,-11.399999618530273
652.96549931495247,-32
653.92897026384526,-18.399999618530273
654.89225604101739,-27
655.85535668226476,-24.799999237060547
656.81827222337415,-25.399999618530273
657.78100270012328,-19.600000381469727
658.74354814828257,-20.600000381469727
659.70590860361335,-14.199999809265137
660.66808410187514,-16.600000381469727
661.63007467881289,-19
662.59188037016247,-17.399999618530273
663.55350121165611,-15.600000381469727
664.514937239017,-24.200000762939453
665.47618848796083,-22.399999618530273
666.4372549941927,-20.600000381469727
667.39813679341023,-27.799999237060547
668.35883392130745,-25
669.31934641356565,-31.200000762939453
670.27967430585886,-24.399999618530273
671.23981763385382,-22.200000762939453
672.19977643321,-19
673.15955073957775,-23.799999237060547
674.119140588602,-19.799999237060547
675.07854601591134,-28.399999618530273
676.03776705714154,-21.600000381469727
676.99680374790478,-24.600000381469727
677.95565612381506,-15.199999809265137
678.91432422047183,-28.600000381469727
679.87280807347634,-17.200000762939453
680.83110771841166,-22
681.78922319085541,-25.799999237060547
682.74715452638156,-23.399999618530273
683.70490176055318,-24.799999237060547
684.66246492892424,-18.600000381469727
