-777.74687133807856,-1
-776.50770429765,-7
-775.26877705141487,1.6000000238418579
-774.03008955063888,1
-772.79164174658763,-2.5999999046325684
-771.55343359055223,2.4000000953674316
-770.31546503381287,1.2000000476837158
-769.07773602767884,2.7999999523162842
-767.8402465234667,-2.2000000476837158
-766.60299647250758,-0.60000002384185791
-765.36598582614351,-6
-764.12921453572744,3.5999999046325684
-762.89268255262323,4.5999999046325684
-761.65638982821292,3.7999999523162842
-760.42033631388222,2.7999999523162842
-759.184521961035,3.5999999046325684
-757.948946721086,-0.20000000298023224
-756.71361054546833,2.2000000476837158
-755.47851338560758,8.3999996185302734
-754.24365519296589,2.4000000953674316
-753.009035918998,8
-751.77465551518071,3
-750.5405139330087,2.7999999523162842
-749.30661112396592,4.4000000953674316
-748.0729470395836,5.4000000953674316
-746.8395216313711,2
-745.60633485086328,6
-744.3733866496168,0.40000000596046448
-743.14067697918108,-3.4000000953674316
-741.90820579113461,0.800000011920929
-740.67597303705952,4.5999999046325684
-739.44397866855252,6.4000000953674316
-738.21222263721756,0.800000011920929
-736.98070489468046,4.4000000953674316
-735.749425392567,1.2000000476837158
-734.51838408252479,2.2000000476837158
-733.28758091621239,0.40000000596046448
-732.057015845292,0.60000002384185791
-730.82668882144753,-0.800000011920929
-729.59659979637036,5.4000000953674316
-728.366748721759,-1.3999999761581421
-727.13713554934475,1.3999999761581421
-725.90776023084072,5.4000000953674316
-724.67862271799277,-0.40000000596046448
-723.449722962554,2.4000000953674316
-722.22106091628848,7.1999998092651367
-720.99263653096386,8.3999996185302734
-719.76444975838785,5
-718.53650055034268,1.6000000238418579
-717.308788858647,-2.4000000953674316
-716.08131463512655,-0.40000000596046448
-714.85407783161827,2.7999999523162842
-713.62707839996983,3.4000000953674316
-712.40031629203258,2.5999999046325684
-711.17379145969062,-0.20000000298023224
-709.94750385482075,2.7999999523162842
-708.72145342932527,1
-707.49564013510644,0.60000002384185791
-706.27006392408839,3.2000000476837158
-705.04472474819522,-1.2000000476837158
-703.81962255938379,5.1999998092651367
-702.59475730959639,-1.6000000238418579
-701.3701289508117,2.5999999046325684
-700.14573743500478,4.4000000953674316
-698.9215827141652,-0.800000011920929
-697.69766474030075,2
-696.47398346541922,2.7999999523162842
-695.25053884156114,5.1999998092651367
-694.02733082075611,0.40000000596046448
-692.80435935505557,-3.7999999523162842
-691.58162439652915,2.5999999046325684
-690.35912589724649,2
-689.13686380929175,7.1999998092651367
-687.91483808476733,2
-686.69304867578649,4.4000000953674316
-685.47149553447343,0.20000000298023224
-684.25017861295237,0.800000011920929
-683.02909786337659,-3
-681.80825323790668,4.5999999046325684
-680.5876446887105,-1
-679.3672721679668,2.4000000953674316
-678.14713562787256,6.8000001907348633
-676.92723502063564,0.20000000298023224
-675.70757029846391,2
-674.48814141360162,10.600000381469727
-673.26894831827849,-4.5999999046325684
-672.04999096475331,-1.2000000476837158
-670.83126930528488,7.1999998092651367
-669.61278329215747,-1.2000000476837158
-668.39453287765537,-5.4000000953674316
-667.176518014081,-1.7999999523162842
-665.95873865374051,4
-664.7411947489727,1
-663.5238862520946,-3.2000000476837158
-662.30681311546687,6.8000001907348633
-661.0899752914429,-4.5999999046325684
-659.87337273240155,4.4000000953674316
-658.6570053907144,1.7999999523162842
-657.44087321878942,0.40000000596046448
-656.22497616902,3.7999999523162842
-655.009314193836,-3.4000000953674316
-653.79388724565979,5.4000000953674316
-652.57869527693947,3.4000000953674316
-651.363738240123,2.5999999046325684
-650.14901608768014,3.2000000476837158
-648.93452877208438,1.2000000476837158
-647.720276245831,-4.5999999046325684
-646.5062584614152,7.5999999046325684
-645.29247537135416,-1.6000000238418579
-644.078926928165,2.2000000476837158
-642.86561308439377,6.8000001907348633
-641.65253379257956,4
-640.43968900529035,3
-639.22707867508689,8
-638.01470275456631,1.6000000238418579
-636.80256119630758,-0.60000002384185791
-635.590653952926,-0.40000000596046448
-634.37898097704056,8
-633.16754222128111,-0.40000000596046448
-631.95633763828118,0
-630.745367180707,7.8000001907348633
-629.534630801214,6
-628.32412845248655,-0.20000000298023224
-627.11386008720547,3.7999999523162842
-625.9038256580734,-1.3999999761581421
-624.69402511780754,0
-623.48445841912508,3.5999999046325684
-622.27512551476138,-1.2000000476837158
-621.0660263574664,7.1999998092651367
-619.85716089999733,2
-618.64852909512592,-3.2000000476837158
-617.44013089563123,-1.2000000476837158
-616.2319662543141,-2.5999999046325684
-615.0240351239645,4.8000001907348633
-613.81633745741237,5
-612.60887320749134,2.5999999046325684
-611.40164232702409,-2
-610.194644768877,3
-608.98788048590177,5.8000001907348633
-607.781349430983,-0.60000002384185791
-606.57505155700892,-1
-605.36898681687126,1.2000000476837158
-604.1631551634764,0.40000000596046448
-602.95755654975983,4.5999999046325684
-601.75219092864245,6.4000000953674316
-600.54705825307065,2.7999999523162842
-599.34215847600535,-2.5999999046325684
-598.13749155041478,-2.4000000953674316
-596.93305742927441,6.1999998092651367
-595.72885606557793,-7
-594.52488741232992,-0.20000000298023224
-593.32115142254224,6.1999998092651367
-592.117648049245,-1
-590.91437724546449,7.5999999046325684
-589.71133896426,1.6000000238418579
-588.50853315869062,-1.2000000476837158
-587.30595978182646,1
-586.10361878675576,7.8000001907348633
-584.90151012657043,-1.6000000238418579
-583.69963375437328,2
-582.49798962329442,2
-581.296577686453,-0.20000000298023224
-580.09539789699556,3
-578.894450208074,3.2000000476837158
-577.69373457285474,1.3999999761581421
-576.4932509445116,5.4000000953674316
-575.29299927623651,-3.2000000476837158
-574.09297952122142,6.8000001907348633
-572.89319163268192,-2.7999999523162842
-571.69363556384451,-2.4000000953674316
-570.49431126793752,2.2000000476837158
-569.29521869820383,1.2000000476837158
-568.09635780790632,-0.60000002384185791
-566.89772855030969,-3
-565.69933087869686,2.4000000953674316
-564.50116474635433,0
-563.30323010658867,-0.40000000596046448
-562.1055269127155,0.60000002384185791
-560.90805511805775,0
-559.710814675951,4
-558.513805539751,-5.5999999046325684
-557.31702766280978,-5
-556.12048099851017,-0.20000000298023224
-554.92416550022062,-6
-553.72808112134589,0.40000000596046448
-552.53222781529075,3.4000000953674316
-551.33660553547088,-2.2000000476837158
-550.14121423531651,-2.5999999046325684
-548.94605386826515,0.40000000596046448
-547.75112438777614,4.4000000953674316
-546.55642574730518,0.60000002384185791
-545.361957900328,-0.20000000298023224
-544.167720800333,-0.60000002384185791
-542.97371440082134,2.4000000953674316
-541.77993865529243,1
-540.58639351727652,5.4000000953674316
-539.39307894030026,-3.7999999523162842
-538.19999487790665,1.3999999761581421
-537.00714128365507,-5.4000000953674316
-535.81451811110674,-3
-534.622125313841,8
-533.42996284544643,-0.40000000596046448
-532.23803065952234,-3.4000000953674316
-531.04632870968271,5
-529.85485694955059,4.1999998092651367
-528.66361533275631,-2.5999999046325684
-527.47260381295564,0.40000000596046448
-526.28182234379165,2.5999999046325684
-525.09127087894194,0
-523.90094937208778,-6.5999999046325684
-522.71085777691223,-4
-521.52099604712748,3.2000000476837158
-520.33136413644206,-4.8000001907348633
-519.14196199858088,1.7999999523162842
-517.95278958728341,-1.7999999523162842
-516.76384685629819,2.5999999046325684
-515.57513375937924,2.4000000953674316
-514.38665025030423,-4.4000000953674316
-513.19839628285263,-2.7999999523162842
-512.01037181081665,1.2000000476837158
-510.82257678800124,2.7999999523162842
-509.63501116822226,2
-508.44767490530649,-0.20000000298023224
-507.26056795309523,4
-506.07369026543893,2.2000000476837158
-504.88704179619526,-6.1999998092651367
-503.70062249923831,-2
-502.51443232845486,-3
-501.32847123773354,2.2000000476837158
-500.14273918098661,0
-498.95723611213,3
-497.77196198509228,0.800000011920929
-496.58691675381124,-0.20000000298023224
-495.40210037224642,4
-494.21751279435375,-3.2000000476837158
-493.03315397410915,-1.6000000238418579
-491.84902386549584,-5.8000001907348633
-490.665122422517,0.40000000596046448
-489.48144959917408,2
-488.29800534949027,3.4000000953674316
-487.11478962749243,-4.5999999046325684
-485.93180238722562,5.1999998092651367
-484.74904358273852,-0.60000002384185791
-483.5665131681053,-4.4000000953674316
-482.38421109738738,-4.8000001907348633
-481.2021373246771,0.800000011920929
-480.0202918040759,-1.2000000476837158
-478.83867448969067,4.8000001907348633
-477.65728533564106,-3.2000000476837158
-476.47612429605579,1.2000000476837158
-475.2951913250854,1
-474.11448637687681,0
-472.93400940559695,-5
-471.75376036542184,-5.1999998092651367
-470.57373921054023,-4.4000000953674316
-469.39394589515177,-5.4000000953674316
-468.21438037346343,-5.8000001907348633
-467.03504259970032,6.5999999046325684
-465.8559325280894,-2
-464.67705011287944,-4.4000000953674316
-463.49839530831923,-1.3999999761581421
-462.31996806867937,6.8000001907348633
-461.14176834823775,-0.40000000596046448
-459.96379610127588,4.5999999046325684
-458.78605128210074,0.800000011920929
-457.60853384501752,-2
-456.43124374435138,2.2000000476837158
-455.25418093443295,-2.7999999523162842
-454.07734536960925,1.6000000238418579
-452.90073700422909,-8.1999998092651367
-451.7243557926613,-1.7999999523162842
-450.54820168928381,7.4000000953674316
-449.37227464848911,-6
-448.19657462467148,4.8000001907348633
-447.02110157224524,1.7999999523162842
-445.84585544562833,0.40000000596046448
-444.67083619925324,1.6000000238418579
-443.49604378757067,4
-442.32147816503129,-2.4000000953674316
-441.14713928610036,-3.4000000953674316
-439.97302710525764,4.1999998092651367
-438.79914157698659,-4.1999998092651367
-437.62548265579426,-4.4000000953674316
-436.45205029618774,-3
-435.27884445268865,0.40000000596046448
-434.10586507982771,3
-432.93311213215566,-0.60000002384185791
-431.76058556421776,4.8000001907348633
-430.58828533058477,-3.2000000476837158
-429.41621138583832,4.8000001907348633
-428.24436368456008,-2.5999999046325684
-427.07274218135353,-2.2000000476837158
-425.90134683082943,-4
-424.73017758760216,6
-423.55923440631159,-6.4000000953674316
-422.38851724159576,-0.40000000596046448
-421.21802604811455,-4.1999998092651367
-420.04776078052782,-9.8000001907348633
-418.87772139351546,3.4000000953674316
-417.70790784176643,-1.2000000476837158
-416.53832007998062,1.6000000238418579
-415.36895806286157,-2.4000000953674316
-414.19982174513279,1.7999999523162842
-413.03091108152512,4.5999999046325684
-411.86222602678754,-2.5999999046325684
-410.69376653566542,3.5999999046325684
-409.52553256292776,-3.2000000476837158
-408.35752406334905,-4
-407.18974099171828,-4.4000000953674316
-406.02218330282813,2.4000000953674316
-404.85485095149124,-6
-403.68774389253122,-6.5999999046325684
-402.5208620807698,-0.800000011920929
-401.35420547105241,1.6000000238418579
-400.18777401823172,-3.7999999523162842
-399.02156767717497,0.20000000298023224
-397.85558640275485,-2.2000000476837158
-396.68983014985315,0.800000011920929
-395.52429887336984,1.7999999523162842
-394.35899252820855,0
-393.1939110692947,-3.7999999523162842
-392.02905445155375,-3.5999999046325684
-390.8644226299275,-0.40000000596046448
-389.70001555936324,-4
-388.53583319482641,-4.5999999046325684
-387.37187549128976,-2
-386.20814240373875,-2.2000000476837158
-385.04463388716613,-6.4000000953674316
-383.8813498965792,3
-382.71829038699252,-0.60000002384185791
-381.55545531343887,-2.5999999046325684
-380.392844630951,0.60000002384185791
-379.23045829458351,-1
-378.06829625939463,-2
-376.90635848045895,-2.7999999523162842
-375.74464491285289,-2.7999999523162842
-374.58315551167289,-2
-373.42189023202263,-2
-372.26084902901857,-1.7999999523162842
-371.10003185778623,-2.2000000476837158
-369.93943867346024,-0.40000000596046448
-368.77906943119342,0.60000002384185791
-367.61892408613858,1.6000000238418579
-366.45900259346672,-4.4000000953674316
-365.29930490835977,-1.3999999761581421
-364.13983098601057,2.5999999046325684
-362.98058078161557,-3
-361.82155425039127,-3.5999999046325684
-360.66275134756324,-0.800000011920929
-359.5041720283607,-2.4000000953674316
-358.34581624803286,3.7999999523162842
-357.18768396183805,2.7999999523162842
-356.02977512504185,-5.1999998092651367
-354.87208969291896,-2.7999999523162842
-353.71462762076044,-8
-352.55738886386462,2.7999999523162842
-351.400373377548,-5.4000000953674316
-350.24358111712354,-2
-349.08701203792953,-5.1999998092651367
-347.93066609530615,-2.5999999046325684
-346.77454324460632,-1
-345.61864344119567,-5.1999998092651367
-344.46296664044894,-0.40000000596046448
-343.30751279775541,-0.800000011920929
-342.15228186851164,-6.1999998092651367
-340.99727380812146,2.2000000476837158
-339.84248857200873,3.7999999523162842
-338.68792611559365,-4.5999999046325684
-337.53358639432554,2.4000000953674316
-336.37946936365006,-5.8000001907348633
-335.2255749790329,2.4000000953674316
-334.07190319594883,7.4000000953674316
-332.918453969869,4.5999999046325684
-331.76522725630093,3.4000000953674316
-330.61222301074304,6.4000000953674316
-329.45944118871012,-1.6000000238418579
-328.30688174573515,15
-327.15454463734568,6.4000000953674316
-326.00242981909287,0.20000000298023224
-324.85053724653517,6.1999998092651367
-323.69886687524559,7.5999999046325684
-322.54741866080076,1.3999999761581421
-321.39619255879552,2.2000000476837158
-320.24518852482652,1.6000000238418579
-319.09440651450677,-6.1999998092651367
-317.9438464834584,3.7999999523162842
-316.79350838731807,2.2000000476837158
-315.64339218173154,-0.20000000298023224
-314.49349782234822,-0.60000002384185791
-313.34382526483751,1.2000000476837158
-312.19437446487791,-2.2000000476837158
-311.04514537814794,0.60000002384185791
-309.89613796035519,-2.5999999046325684
-308.74735216720546,-2.5999999046325684
-307.59878795441546,-2.4000000953674316
-306.45044527772006,-3.5999999046325684
-305.30232409285418,-2
-304.1544243555727,-3.5999999046325684
-303.00674602163963,2.4000000953674316
-301.85928904682078,-7.4000000953674316
-300.71205338690925,4
-299.56503899768541,-3
-298.41824583496964,-3.2000000476837158
-297.27167385456596,-0.800000011920929
-296.12532301230749,0.40000000596046448
-294.97919326402553,0.40000000596046448
-293.83328456556956,-1.2000000476837158
-292.6875968728,6.4000000953674316
-291.54213014158267,-5.5999999046325684
-290.39688432779803,-3
-289.25185938733557,1.3999999761581421
-288.10705527609389,4.4000000953674316
-286.96247194998614,-10.800000190734863
-285.81810936493457,-4.1999998092651367
-284.67396747687235,2.4000000953674316
-283.53004624174173,3.4000000953674316
-282.38634561549406,-2.5999999046325684
-281.24286555409708,0.20000000298023224
-280.09960601352395,2.2000000476837158
-278.95656694976424,-1.3999999761581421
-277.81374831880566,-5.8000001907348633
-276.67115007666143,-11.600000381469727
-275.52877217934838,-2.5999999046325684
-274.38661458289062,5.1999998092651367
-273.24467724332862,-0.20000000298023224
-272.10296011671562,0
-270.961463159103,2.2000000476837158
-269.82018632656946,3.5999999046325684
-268.67912957519366,7.5999999046325684
-267.53829286106156,-7.4000000953674316
-266.39767614028096,-1.3999999761581421
-265.25727936895964,3.5999999046325684
-264.11710250322722,-2.5999999046325684
-262.97714549921329,0.800000011920929
-261.8374083130584,6.1999998092651367
-260.6978909009249,-5.8000001907348633
-259.55859321897515,1.7999999523162842
-258.41951522338059,-2.5999999046325684
-257.28065687033632,-4.8000001907348633
-256.14201811603016,-1.7999999523162842
-255.00359891667358,7.1999998092651367
-253.86539922848715,-0.60000002384185791
-252.7274190076987,5
-251.58965821054153,2
-250.45211679326894,3.2000000476837158
-249.31479471214516,-0.800000011920929
-248.17769192343076,0.20000000298023224
-247.04080838342088,7.1999998092651367
-245.90414404839248,0
-244.76769887465525,2.4000000953674316
-243.63147281852252,1.3999999761581421
-242.49546583631673,-0.20000000298023224
-241.35967788436938,8.1999998092651367
-240.22410891902837,5.4000000953674316
-239.08875889664705,6
-237.95362777358059,8
-236.81871550621872,7.8000001907348633
-235.6840220509439,4
-234.54954736414584,-4.4000000953674316
-233.41529140224156,1
-232.28125412163718,5
-231.14743547876969,12
-230.0138354300725,11.399999618530273
-228.88045393199536,6.4000000953674316
-227.74729094100257,5
-226.61434641355845,10.399999618530273
-225.48162030614367,-1.2000000476837158
-224.349112575248,10.199999809265137
-223.21682317737577,10.399999618530273
-222.08475206903313,9.3999996185302734
-220.95289920674804,10.600000381469727
-219.82126454705212,7.5999999046325684
-218.68984804648244,9.6000003814697266
-217.5586496615997,9.3999996185302734
-216.427669348961,8
-215.29690706514521,13
-214.16636276673125,-4.4000000953674316
-213.03603641032169,9.6000003814697266
-211.90592795251541,1.2000000476837158
-210.77603734992772,9
-209.64636455919026,10.199999809265137
-208.51690953693469,12
-207.38767223980722,15.199999809265137
-206.25865262447223,13.800000190734863
-205.12985064758868,13.199999809265137
-204.00126626584097,6.8000001907348633
-202.87289943590986,13
-201.74475011450158,13.800000190734863
-200.61681825831874,9.8000001907348633
-199.48910382408758,8.8000001907348633
-198.36160676853797,8.8000001907348633
-197.23432704840525,9.1999998092651367
-196.10726462043749,4.1999998092651367
-194.98041944140277,12.800000190734863
-193.85379146806918,10.600000381469727
-192.72738065721751,13.199999809265137
-191.6011869656395,15.800000190734863
-190.47521035013779,11.800000190734863
-189.34945076753138,12.399999618530273
-188.22390817463383,12.600000381469727
-187.09858252828053,11.399999618530273
-185.97347378531958,13.399999618530273
-184.84858190259911,13.399999618530273
-183.72390683699086,15.199999809265137
-182.59944854536116,14
-181.47520698460175,12.399999618530273
-180.35118211159897,17
-179.22737388326641,13.399999618530273
-178.1037822565213,18.600000381469727
-176.9804071882827,17
-175.85724863548785,17
-174.73430655509037,24.200000762939453
-173.61158090404206,15.800000190734863
-172.48907163931108,24.200000762939453
-171.36677871787106,21
-170.24470209671563,24.799999237060547
-169.12284173284024,25.200000762939453
-168.00119758325309,26.200000762939453
-166.8797696049769,32
-165.75855775503624,29.399999618530273
-164.6375619904702,35.599998474121094
-163.51678226832883,42
-162.39621854567667,34
-161.27587077957287,43.400001525878906
-160.15573892710927,35.400001525878906
-159.03582294536864,47
-157.91612279145556,45.799999237060547
-156.79663842247828,50.799999237060547
-155.67736979555957,38.400001525878906
-154.55831686783313,56.200000762939453
-153.43947959643447,51.799999237060547
-152.32085793852275,44.400001525878906
-151.20245185125532,53.400001525878906
-150.08426129180589,48.400001525878906
-148.96628621735545,53.799999237060547
-147.84852658509953,51.400001525878906
-146.73098235223915,58
-145.61365347598803,56.599998474121094
-144.49653991357081,59
-143.3796416222176,60.400001525878906
-142.26295855917488,56.599998474121094
-141.14649068169638,63
-140.03023794704677,68.800003051757813
-138.91420031250163,81
-137.79837773533836,74
-136.68277017286164,74.4000015258789
-135.56737758237068,81.5999984741211
-134.45219992117563,90.800003051757813
-133.33723714661573,90
-132.22248921601567,93
-131.10795608672197,102.59999847412109
-129.99363771609387,103.40000152587891
-128.87953406149063,116.80000305175781
-127.76564508029878,124.19999694824219
-126.65197072989395,125.80000305175781
-125.53851096768085,131.39999389648438
-124.4252657510624,135.19999694824219
-123.31223503745423,143.80000305175781
-122.19941878428472,144.39999389648438
-121.08681694899133,156
-119.97442948901517,164.39999389648438
-118.8622563618228,179.80000305175781
-117.75029752487717,172.60000610351563
-116.63855293565393,202
-115.52702255164331,199.60000610351563
-114.41570633034462,206.39999389648438
-113.30460422925898,214.39999389648438
-112.19371620590573,221.80000305175781
-111.08304221782055,239.39999389648438
-109.97258222253549,237.19999694824219
-108.86233617759535,260
-107.75230404056492,263.20001220703125
-106.64248576901082,282.79998779296875
-105.53288132051239,277.20001220703125
-104.42349065265807,299.60000610351563
-103.31431372304178,311.79998779296875
-102.20535048927377,322
-101.09660090898069,336.79998779296875
-99.988064939780088,353.60000610351563
-98.879742539320432,359.20001220703125
-97.771633665246554,395.20001220703125
-96.6637382752142,414.60000610351563
-95.556056326899125,430.20001220703125
-94.448587777975263,447.39999389648438
-93.34133258613474,472
-92.234290709076959,498.60000610351563
-91.1274621045086,515.5999755859375
-90.020846730150879,536.4000244140625
-88.914444543732316,556.20001220703125
-87.808255502995962,556.4000244140625
-86.7022795656867,561.79998779296875
-85.596516689563941,546.20001220703125
-84.490966832401682,535.79998779296875
-83.385629951977535,531.5999755859375
-82.280506006080032,527.4000244140625
-81.175594952508618,531.5999755859375
-80.070896749077292,558
-78.966411353598232,559
-77.862138723905446,575
-76.7580788178384,588.5999755859375
-75.654231593249278,637.5999755859375
-74.550597007988472,636.79998779296875
-73.447175019935457,672.4000244140625
-72.3439655869679,694.79998779296875
-71.240968666974368,733.79998779296875
-70.138184217854359,783.4000244140625
-69.035612197516457,810.4000244140625
-67.933252563881979,852
-66.831105274881338,885.79998779296875
-65.7291702884504,892.79998779296875
-64.62744756254142,893.5999755859375
-63.525937055112081,910.20001220703125
-62.424638724134638,905.5999755859375
-61.323552527588618,915.4000244140625
-60.222678423459,947
-59.122016369747143,963.79998779296875
-58.02156632446713,1010.4000244140625
-56.92132824563123,1005
-55.821302091271718,1042
-54.721487819426329,1023.5999755859375
-53.621885388145529,1017
-52.522494755494336,973.20001220703125
-51.423315879526854,936.5999755859375
-50.324348718333567,950
-49.225593230001323,932.20001220703125
-48.12704937262788,950.4000244140625
-47.028717104320094,1012.7999877929688
-45.930596383199372,1105.5999755859375
-44.832687167392578,1194.5999755859375
-43.734989415037489,1327.5999755859375
-42.637503084284617,1452.199951171875
-41.540228133289929,1556.199951171875
-40.443164520223945,1719
-39.346312203260823,1906
-38.249671140592909,2241.60009765625
-37.153241290412552,2719.39990234375
-36.057022610932108,3176.800048828125
-34.961015060369391,3577
-33.865218596949489,3783.39990234375
-32.769633178906588,3733.800048828125
-31.6742587644967,3608.800048828125
-30.579095311970377,3265.199951171875
-29.484142779594549,2894.199951171875
-28.389401125643417,2627.199951171875
-27.29487030841301,2439
-26.200550286193902,2298.800048828125
-25.106441017293037,2147.800048828125
-24.012542460020995,2095
-22.918854572712007,1998.199951171875
-21.82537731370212,1981.800048828125
-20.7321106413292,1946
-19.639054513960218,1945.800048828125
-18.546208889949412,1856.199951171875
-17.453573727678304,1819.4000244140625
-16.361148985530235,1771.800048828125
-15.268934621899461,1774.4000244140625
-14.176930595191152,1775.5999755859375
-13.085136863823209,1797.4000244140625
-11.993553386213534,1824.199951171875
-10.902180120801859,1855.800048828125
-9.8110170260297309,1842.4000244140625
-8.720064060353252,1812.5999755859375
-7.62932118223398,1803.800048828125
-6.5387883501425677,1542.199951171875
-5.448465522567858,976.79998779296875
-4.3583526579986938,399
-3.2684497149384697,61.400001525878906
-2.1787566519033135,11.199999809265137
-1.0892734274111717,8.8000001907348633
0,104
1.0890636717958841,488.20001220703125
2.1779176294185163,1075.199951171875
3.266561914309932,1610.4000244140625
4.354996567899434,1778.199951171875
5.443221631601773,1803.4000244140625
6.5312371468298807,1861.800048828125
7.6190431549803179,1867
8.7066396974460076,1820.5999755859375
9.7940268156035017,1840.199951171875
10.881204550825714,1817.5999755859375
11.968172944472826,1857.199951171875
13.054932037890467,1830.4000244140625
14.141481872427903,1874.4000244140625
15.227822489416212,1914.5999755859375
16.313953930162825,1976.5999755859375
17.399876235997,2030
18.485589448209794,2055.800048828125
19.571093608095907,2096.199951171875
20.656388756942761,2152.199951171875
21.74147493601231,2255
22.826352186579243,2399.199951171875
23.911020549890964,2540.800048828125
24.995480067191238,2765
26.079730779716556,3028
27.163772728685217,3400.800048828125
28.247605955324616,3796.800048828125
29.331230500825768,4024
30.414646406390602,3978.39990234375
31.49785371319922,3842.39990234375
32.58085246243354,3457.39990234375
33.663642695257295,2990.199951171875
34.746224452830575,2479.39990234375
35.828597776289826,2084.800048828125
36.910762706780588,1863.199951171875
37.992719285430212,1739.5999755859375
39.074467553356953,1594
40.156007551660878,1443
41.237339321447507,1331.800048828125
42.318462903804175,1205.800048828125
43.39937833980548,1111.5999755859375
44.48008567053148,1042.4000244140625
45.560584937029489,1026.4000244140625
46.6408761803541,1016.7999877929688
47.720959441552623,1028.199951171875
48.80083476164873,1056.5999755859375
49.880502181658812,1114.5999755859375
50.9599617426029,1164.800048828125
52.039213485481014,1154.5999755859375
53.118257451287718,1159.199951171875
54.197093680997568,1124.800048828125
55.275722215592396,1089.800048828125
56.354143096026746,1058
57.432356363258805,1054.199951171875
58.510362058235842,1035.5999755859375
59.588160221886938,1024.199951171875
60.665750895142992,1038.199951171875
61.743134118913076,1006
62.820309934106263,998.79998779296875
63.89727838161707,977
64.974039502334563,938.79998779296875
66.050593337131431,905.79998779296875
67.12693992687673,855.4000244140625
68.203079312430418,808.79998779296875
69.2790115346379,780.20001220703125
70.354736634337314,760.5999755859375
71.43025465235587,727.4000244140625
72.505565629522607,695.4000244140625
73.580669606635638,697.20001220703125
74.655566624502171,678.5999755859375
75.730256723907587,667
76.804739945639085,653.20001220703125
77.879016330462036,635.4000244140625
78.953085919145451,635.20001220703125
80.026948752434691,621.20001220703125
81.10060487107512,639.5999755859375
82.174054315803,626
83.247297127336424,670.4000244140625
84.320333346397092,653.5999755859375
85.39316301368126,645.4000244140625
86.465786169887,630.79998779296875
87.538202855701456,621.4000244140625
88.610413111804519,616
89.682416978852416,580.5999755859375
90.754214497510475,546.4000244140625
91.825805708424014,514.5999755859375
92.897190652229256,510.60000610351563
93.968369369558786,473.20001220703125
95.039341901027,458.39999389648438
96.110108287242838,442.60000610351563
97.180668568809779,417.60000610351563
98.251022786316753,415
99.321170980345414,378.20001220703125
100.39111319146468,362
101.46084946023984,355
102.53037982722162,342.79998779296875
103.59970433295166,328.39999389648438
104.66882301796431,330
105.73773592278485,308.79998779296875
106.8064430879258,298.20001220703125
107.87494455389424,289.60000610351563
108.94324036118269,276
110.01133055028004,263.39999389648438
111.07921516166243,263.39999389648438
112.1468942357933,245.19999694824219
113.21436781313787,245.80000305175781
114.28163593413956,227
115.3486986392345,209.60000610351563
116.41555596884973,215.39999389648438
117.48220796341775,197
118.54865466334195,192.19999694824219
119.61489610901845,184.19999694824219
120.68093234084154,189
121.74676339919642,173.80000305175781
122.81238932445376,162.39999389648438
123.87781015697874,146.19999694824219
124.94302593711836,146.80000305175781
126.00803670522509,136.39999389648438
127.07284250162593,137.39999389648438
128.13744336665695,126.19999694824219
129.20183934062334,129.39999389648438
130.26603046383752,114.59999847412109
131.33001677659377,107
132.3937983191845,102.40000152587891
133.4573751318876,99.199996948242188
134.52074725496641,100.40000152587891
135.58391472868425,99.5999984741211
136.6468775932899,92.199996948242188
137.70963588902487,90.4000015258789
138.77218965612155,85.800003051757813
139.83453893480146,89
140.89668376527698,81
141.95862418775323,80.199996948242188
143.02036024241897,80.800003051757813
144.0818919694666,76.4000015258789
145.14321940906302,69.199996948242188
146.20434260137881,66.199996948242188
147.26526158656816,73.4000015258789
148.32597640478161,66.199996948242188
149.38648709615154,71
150.4467937008103,69.5999984741211
151.50689625887571,68.4000015258789
152.5667948104583,67
153.62648939565406,70
154.68598005455897,55
155.74526682725445,58.799999237060547
156.8043497538074,54.599998474121094
157.86322887428469,56.799999237060547
158.9219042287441,54.400001525878906
159.98037585721977,50.799999237060547
161.03864379975494,48.599998474121094
162.096708096371,45.799999237060547
163.15456878708392,45.200000762939453
164.21222591190417,40.799999237060547
165.2696795108277,38.599998474121094
166.32692962384135,41.599998474121094
167.38397629092287,32.599998474121094
168.4408195520482,29.399999618530273
169.4974594471696,30.799999237060547
170.55389601624302,27.399999618530273
171.61012929921162,33.799999237060547
172.66615933600406,38.799999237060547
173.7219861665435,15
174.7776098307495,36.200000762939453
175.83303036851612,23
176.88824781974836,19.399999618530273
177.94326222432755,12.199999809265137
178.99807362213323,15.199999809265137
180.05268205302673,23.600000381469727
181.10708755687847,21
182.16129017352432,23.600000381469727
183.21528994280743,15.600000381469727
184.26908690456366,21.399999618530273
185.32268109860706,22.600000381469727
186.37607256475167,10.800000190734863
187.42926134280606,19.799999237060547
188.482247472557,16
189.53503099378759,15.399999618530273
190.58761194627914,13.199999809265137
191.63999036979294,16.200000762939453
192.692166304083,13.800000190734863
193.7441397888997,20.799999237060547
194.79591086397886,8.8000001907348633
195.8474795690563,21.399999618530273
196.89884594384057,15.199999809265137
197.95001002804929,14.600000381469727
199.00097186138009,7.5999999046325684
200.05173148352878,15.199999809265137
201.10228893417116,12
202.15264425298847,16.399999618530273
203.2027974796365,17.200000762939453
204.25274865377651,18.399999618530273
205.30249781504972,11
206.35204500309737,11.800000190734863
207.4013902575407,18
208.45053361800274,13.800000190734863
209.49947512409562,13.199999809265137
210.54821481540785,8.3999996185302734
211.59675273154062,11.800000190734863
212.64508891206788,5.8000001907348633
213.69322339656719,16.399999618530273
214.74115622459976,7.1999998092651367
215.78888743571224,6
216.83641706946219,16.200000762939453
217.88374516537988,13.399999618530273
218.93087176298468,6.1999998092651367
219.97779690180323,12.800000190734863
221.02452062133852,5.5999999046325684
222.0710429610881,5.8000001907348633
223.11736396054403,1.2000000476837158
224.16348365918566,5
225.2094020964887,8.1999998092651367
226.25511931190886,8.3999996185302734
227.3006353449,10
228.34595023491056,5.4000000953674316
229.39106402137622,8.3999996185302734
230.43597674371449,5.5999999046325684
231.48068844134468,5
232.52519915367702,1.6000000238418579
233.569508920109,1.7999999523162842
234.61361778002538,3.2000000476837158
235.65752577281455,7.1999998092651367
236.70123293784127,1.2000000476837158
237.74473931446664,4.4000000953674316
238.78804494204451,5.5999999046325684
239.83114985991779,1
240.87405410742394,-1.3999999761581421
241.91675772388407,4.1999998092651367
242.95926074861745,1.6000000238418579
244.00156322093062,3.4000000953674316
245.04366518011921,-0.800000011920929
246.08556666547338,1
247.12726771627604,1
248.16876837179188,-0.20000000298023224
249.21006867128381,-6.1999998092651367
250.25116865401105,-0.20000000298023224
251.29206835920559,-3.4000000953674316
252.33276782611392,0.60000002384185791
253.37326709395347,-0.800000011920929
254.41356620194165,-2.4000000953674316
255.45366518928495,-1.7999999523162842
256.49356409518441,-4.1999998092651367
257.53326295883016,-1.6000000238418579
258.57276181939596,-2.5999999046325684
259.61206071605739,-1.7999999523162842
260.65115968797545,3
261.69005877429845,-1.2000000476837158
262.72875801417831,-2
263.76725744674513,-1
264.80555711111992,-8.6000003814697266
265.84365704643096,1.3999999761581421
266.88155729177379,1.6000000238418579
267.91925788625122,-1.7999999523162842
268.95675886895515,-10.199999809265137
269.99406027896839,-0.60000002384185791
271.03116215535192,-8.3999996185302734
272.06806453717945,-0.40000000596046448
273.10476746349923,-10.600000381469727
274.14127097334858,2.4000000953674316
275.17757510577758,-4
276.21367989980354,-1.2000000476837158
277.24958539444378,-3.4000000953674316
278.28529162870836,-1.7999999523162842
279.32079864159641,-7.1999998092651367
280.35610647209614,-8.6000003814697266
281.39121515919214,-4
282.42612474185262,-9.8000001907348633
283.46083525904578,2
284.49534674972347,-4.5999999046325684
285.52965925283388,2.4000000953674316
286.56377280730703,1.6000000238418579
287.59768745207475,-1.7999999523162842
288.63140322605432,-0.60000002384185791
289.66492016815391,-1.6000000238418579
290.6982383172799,-8.3999996185302734
291.73135771231318,7
292.76427839214739,-4.8000001907348633
293.79700039564887,-10.399999618530273
294.82952376168032,-2
295.86184852910264,-8.6000003814697266
296.89397473676581,-4.5999999046325684
297.92590242349979,-4
298.95763162813637,-8.6000003814697266
299.9891623894946,-2.2000000476837158
301.02049474638625,-9.6000003814697266
302.05162873761219,-3.4000000953674316
303.082564401966,-8
304.1133017782322,-0.800000011920929
305.14384090518251,-3.7999999523162842
306.1741818215869,-7.8000001907348633
307.20432456620438,-1.6000000238418579
308.23426917777579,0.60000002384185791
309.26401569504924,-11.199999809265137
310.29356415674738,-4.8000001907348633
311.32291460160013,-1.7999999523162842
312.35206706831377,-3
313.38102159559276,-5
314.40977822213063,0.40000000596046448
315.43833698661547,2.2000000476837158
316.46669792772627,4
317.49486108412748,10.600000381469727
318.52282649447989,0.40000000596046448
319.55059419743338,2.5999999046325684
320.5781642316324,1
321.60553663570317,0.800000011920929
322.63271144827559,13.800000190734863
323.65968870795768,4.5999999046325684
324.68646845335934,7
325.71305072307769,11.600000381469727
326.73943555570077,8
327.76562298980934,5.4000000953674316
328.79161306396782,-0.40000000596046448
329.81740581674421,3.4000000953674316
330.84300128668838,5.5999999046325684
331.86839951234651,-3.5999999046325684
332.89360053224482,-2
333.9186043849204,0.20000000298023224
334.9434111088849,-3.7999999523162842
335.96802074264451,-0.800000011920929
336.9924333247036,-8.1999998092651367
338.016648893552,-9.1999998092651367
339.04066748766672,-0.20000000298023224
340.06448914552857,-4.8000001907348633
341.08811390559458,-8.6000003814697266
342.11154180632184,-6
343.13477288616014,-11
344.15780718354108,0.60000002384185791
345.1806447368981,-9.6000003814697266
346.20328558465189,-9.1999998092651367
347.22572976520678,-6.8000001907348633
348.24797731697436,-4.4000000953674316
349.2700282783444,-7.1999998092651367
350.29188268769758,-11.399999618530273
351.3135405834164,-4
352.3350020038597,-7.5999999046325684
353.35626698739179,-4.8000001907348633
354.37733557236061,1.7999999523162842
355.39820779711044,-10.199999809265137
356.41888369996741,-5.4000000953674316
357.43936331925579,-2.7999999523162842
358.4596466932926,-7
359.47973386038029,-4.5999999046325684
360.4996248588177,1.7999999523162842
361.51931972688908,-7.5999999046325684
362.53881850287689,0.60000002384185791
363.55812122505267,-4.5999999046325684
364.57722793167341,-8.8000001907348633
365.59613866099608,-5
366.61485345126675,-6.5999999046325684
367.63337234071332,-8.6000003814697266
368.65169536756548,-4.4000000953674316
369.66982257004383,-1.2000000476837158
370.68775398635444,-6.4000000953674316
371.70548965469789,-8.1999998092651367
372.7230296132675,-3.2000000476837158
373.74037390024205,-12.199999809265137
374.75752255379666,-11.800000190734863
375.7744756120992,-4.5999999046325684
376.79123311330659,-9.1999998092651367
377.80779509556305,0
378.82416159700733,-7.1999998092651367
379.84033265577273,-10
380.856308309978,-4.8000001907348633
381.87208859774,-10.399999618530273
382.88767355716118,-4.8000001907348633
383.90306322633296,-10
384.918257643345,-6.8000001907348633
385.933256846276,0.800000011920929
386.94806087319375,-11.600000381469727
387.96266976215884,-8
388.97708355122268,-6
389.99130227842943,-9.1999998092651367
391.005325981816,-5.4000000953674316
392.01915469940104,-7.8000001907348633
393.03278846921057,-9
394.04622732924145,-7.1999998092651367
395.05947131750145,-5.5999999046325684
396.072520471982,-7.8000001907348633
397.08537483066175,-10
398.09803443151395,-5.5999999046325684
399.11049931250454,-9.6000003814697266
400.12276951158856,-3.2000000476837158
401.13484506671739,0.20000000298023224
402.14672601582424,-12
403.15841239684596,-6
404.16990424769574,-1.3999999761581421
405.18120160629041,-8.3999996185302734
406.19230451053772,-11.399999618530273
407.20321299832722,-7.4000000953674316
408.21392710754844,-9.6000003814697266
409.22444687608004,-2
410.2347723417879,-7.4000000953674316
411.24490354253794,-10.399999618530273
412.25484051617786,-3.5999999046325684
413.26458330055357,-8.1999998092651367
414.27413193350003,-7
415.28348645284314,-1.3999999761581421
416.29264689639967,-7.4000000953674316
417.30161330197734,1.7999999523162842
418.310385707382,-8.3999996185302734
419.31896415039773,-3
420.327348668814,-9.6000003814697266
421.33553930040034,-6.1999998092651367
422.34353608292622,-12.399999618530273
423.35133905414659,-0.60000002384185791
424.35894825181094,-6.4000000953674316
425.366363713656,-5
426.37358547742224,-8
427.38061358082268,-7
428.38744806157592,-0.800000011920929
429.39408895738779,-2
430.40053630595321,-9
431.40679014495618,-3.4000000953674316
432.41285051209161,-9.3999996185302734
433.41871744501259,-9.3999996185302734
434.42439098139221,-0.40000000596046448
435.42987115888172,-2
436.43515801512694,-4
437.4402515877664,-5.4000000953674316
438.44515191442224,-7.4000000953674316
439.44985903272209,-4.1999998092651367
440.45437298026809,-3.2000000476837158
441.45869379467149,-11.399999618530273
442.4628215135217,-8.8000001907348633
443.46675617440451,-10.600000381469727
444.47049781489659,-2.5999999046325684
445.47404647256735,-6.1999998092651367
446.47740218497347,-2.7999999523162842
447.480564989668,-3.4000000953674316
448.483534924193,-7.8000001907348633
449.48631202608703,-9.3999996185302734
450.48889633286853,-6.8000001907348633
451.49128788205962,0.60000002384185791
452.49348671116604,-8
453.49549285768262,-6
454.49730635911328,-0.800000011920929
455.49892725292921,-7.1999998092651367
456.50035557661067,-0.800000011920929
457.50159136762159,-6.1999998092651367
458.50263466341676,-1.3999999761581421
459.503485501451,-5.5999999046325684
460.50414391915729,-2.5999999046325684
461.50460995397043,-9.6000003814697266
462.5048836433125,-6
463.50496502460373,-6.8000001907348633
464.50485413524257,-2.7999999523162842
465.50455101262742,-10.600000381469727
466.50405569415489,1
467.50336821719429,2.7999999523162842
468.50248861912587,-1.2000000476837158
469.50141693731166,-5
470.50015320910279,8
471.49869747185039,-10.600000381469727
472.49704976288922,-4.1999998092651367
473.49521011955221,-6.1999998092651367
474.49317857915776,-5.4000000953674316
475.49095517901515,-3.5999999046325684
476.48853995643731,-9.6000003814697266
477.48593294871353,-11.399999618530273
478.48313419313126,-3.4000000953674316
479.48014372697253,-8.6000003814697266
480.47696158750477,-3
481.47358781198818,-5.1999998092651367
482.47002243768111,-3.4000000953674316
483.46626550182373,-10.800000190734863
484.46231704165621,-1.2000000476837158
485.45817709440053,-1.2000000476837158
486.45384569728049,-10.199999809265137
487.44932288750715,-8
488.44460870228249,-3.2000000476837158
489.43970317880303,-13.199999809265137
490.4346063542489,-0.40000000596046448
491.42931826580025,-2.5999999046325684
492.4238389506263,-7.4000000953674316
493.41816844588539,-3.2000000476837158
494.41230678873217,-9.1999998092651367
495.40625401630859,-3
496.40001016574752,-6.1999998092651367
497.39357527418179,-10.399999618530273
498.3869493787206,-4.1999998092651367
499.3801325164859,-9.6000003814697266
500.37312472456688,-7.4000000953674316
501.36592604006182,-1.3999999761581421
502.35853650005447,-4
503.35095614162128,-5.1999998092651367
504.34318500183144,-6.4000000953674316
505.33522311774323,-2.4000000953674316
506.32707052640581,-8.1999998092651367
507.3187272648629,-7.5999999046325684
508.31019337014914,-3.2000000476837158
509.30146887928822,-5.1999998092651367
510.29255382930023,-1.6000000238418579
511.28344825719068,-4
512.27415219996328,-1.3999999761581421
513.26466569460717,-7.1999998092651367
514.25498877810969,-13.399999618530273
515.24512148744543,-1.3999999761581421
516.23506385957626,-2.5999999046325684
517.22481593147131,-9.1999998092651367
518.214377740067,-2.7999999523162842
519.20374932231425,-6.5999999046325684
520.19293071514585,1.2000000476837158
521.18192195548909,-9
522.17072308025308,-0.20000000298023224
523.15933412635422,-3.4000000953674316
524.14775513068525,-2.2000000476837158
525.13598613014619,-0.60000002384185791
526.12402716160977,-9
527.11187826196146,-10.600000381469727
528.09953946806127,-4.4000000953674316
529.08701081677282,-3.4000000953674316
530.07429234493793,-13.600000381469727
531.06138408940751,-3.7999999523162842
532.048286087007,-5
533.03499837456729,-3.5999999046325684
534.0215209889011,1.6000000238418579
535.00785396682113,1.2000000476837158
535.99399734512008,-0.800000011920929
536.97995116059792,-6.4000000953674316
537.965715450031,0.800000011920929
538.95129025019924,-7.5999999046325684
539.93667559786809,-2
540.921871529792,-10.800000190734863
541.90687808272924,-4
542.89169529341052,-9.3999996185302734
543.87632319857767,-1.2000000476837158
544.86076183495788,-10
545.84501123925838,-7.1999998092651367
546.82907144819546,-2.2000000476837158
547.8129424984636,-3
548.7966244267609,-4.4000000953674316
549.78011726976547,-6.4000000953674316
550.76342106415723,2.4000000953674316
551.74653584660155,-6.5999999046325684
552.7294616537547,-12
553.71219852227114,-8.1999998092651367
554.69474648879077,-0.800000011920929
555.677105589948,-7
556.65927586237194,-5.5999999046325684
557.64125734267327,-5.4000000953674316
558.62305006746465,-9.6000003814697266
559.604654073346,-5.5999999046325684
560.58606939691163,-12
561.56729607475063,-6.1999998092651367
562.54833414342647,-1.3999999761581421
563.5291836395154,-6.5999999046325684
564.50984459957726,-4.5999999046325684
565.490317060161,-7.4000000953674316
566.4706010578102,-4
567.450696629061,-4.4000000953674316
568.43060381044052,-4.8000001907348633
569.41032263846137,2
570.38985314963975,0
571.36919538047732,-6.4000000953674316
572.348349367463,-5.1999998092651367
573.32731514708939,4.4000000953674316
574.30609275582538,-9.8000001907348633
575.28468223014534,-2.4000000953674316
576.26308360651274,-3
577.24129692136921,-9.3999996185302734
578.219322211171,-8
579.197159512345,0.20000000298023224
580.17480886132762,-2
581.15227029453308,-5.5999999046325684
582.12954384837394,-6.5999999046325684
583.10662955925181,-5.8000001907348633
584.08352746356286,-2.7999999523162842
585.06023759769778,-6.5999999046325684
586.03675999802908,-3.7999999523162842
587.01309470092929,-7.5999999046325684
587.98924174276181,-8.6000003814697266
588.965201159881,-3.4000000953674316
589.940972988632,-5.5999999046325684
590.916557265351,-2.7999999523162842
591.89195402637051,-6
592.86716330800846,-6.1999998092651367
593.84218514657914,-6
594.81701957839141,1.2000000476837158
595.79166663973774,-10.600000381469727
596.76612636690516,1.3999999761581421
597.74039879617885,2.2000000476837158
598.71448396382948,-9.8000001907348633
599.68838190611859,5.8000001907348633
600.66209265930229,-4
601.63561625963666,-1.3999999761581421
602.60895274334871,-6
603.58210214668,2.5999999046325684
604.55506450584653,-6.4000000953674316
605.52783985706992,-1
606.50042823655167,-5.4000000953674316
607.472829680497,0.800000011920929
608.44504422508908,-3.2000000476837158
609.41707190651687,-18
610.38891276095092,-1.2000000476837158
611.36056682456,-1.3999999761581421
612.332034133502,-0.40000000596046448
613.3033147239239,-1.2000000476837158
614.2744086319708,-4.5999999046325684
615.24531589377693,-1
616.216036545462,-3.7999999523162842
617.18657062315287,-1.2000000476837158
618.15691816295475,-7.1999998092651367
619.12707920096727,-5.8000001907348633
620.09705377328282,-3.4000000953674316
621.06684191599379,3.7999999523162842
622.03644366517074,-7.4000000953674316
623.0058590568824,0.800000011920929
623.97508812719207,-3.4000000953674316
624.94413091215029,-6.4000000953674316
625.912987447804,-10
626.88165777019094,-0.20000000298023224
627.85014191533446,0
628.81843991925962,-9.1999998092651367
629.78655181797694,-8.8000001907348633
630.75447764748969,-2
631.72221744379385,-6.5999999046325684
632.68977124288176,-5.1999998092651367
633.65713908072576,-5.4000000953674316
634.62432099330545,-5.1999998092651367
635.59131701657861,-3.5999999046325684
636.55812718650486,-3
637.52475153902742,-3.7999999523162842
638.49119011009134,-2.2000000476837158
639.45744293562529,-11.399999618530273
640.42351005155251,0
641.38939149379257,-4.8000001907348633
642.355087298245,-7.1999998092651367
643.32059750081135,-6.8000001907348633
644.28592213738557,0
645.25106124385456,-10.600000381469727
646.216014856087,-5.8000001907348633
647.18078300994785,-8
648.1453657413058,-10.399999618530273
649.10976308600038,1.6000000238418579
650.07397507988208,-11.600000381469727
651.03800175878678,-6.4000000953674316
652.00184315853767,-3.7999999523162842
652.96549931495247,-2.5999999046325684
653.92897026384526,-5.5999999046325684
654.89225604101739,-3.7999999523162842
655.85535668226476,-5.1999998092651367
656.81827222337415,-2.4000000953674316
657.78100270012328,-7
658.74354814828257,-0.60000002384185791
659.70590860361335,-4.5999999046325684
660.66808410187514,-4.5999999046325684
661.63007467881289,-1
662.59188037016247,-7.1999998092651367
663.55350121165611,-6.4000000953674316
664.514937239017,-3
665.47618848796083,-5
666.4372549941927,-2
667.39813679341023,-5.4000000953674316
668.35883392130745,-3.2000000476837158
669.31934641356565,-13.800000190734863
670.27967430585886,-3.5999999046325684
671.23981763385382,-5.8000001907348633
672.19977643321,-7.1999998092651367
673.15955073957775,0
674.119140588602,-1.3999999761581421
675.07854601591134,-4.5999999046325684
676.03776705714154,-3
676.99680374790478,-11.199999809265137
677.95565612381506,-2.5999999046325684
678.91432422047183,-3.5999999046325684
679.87280807347634,-3
680.83110771841166,-11.399999618530273
681.78922319085541,-5.4000000953674316
682.74715452638156,-7
683.70490176055318,-5.8000001907348633
684.66246492892424,-2
