-777.74687133807856,3.6666667461395264
-776.50770429765,-1.3333333730697632
-775.26877705141487,10.666666984558105
-774.03008955063888,6.6666665077209473
-772.79164174658763,5.3333334922790527
-771.55343359055223,7
-770.31546503381287,7
-769.07773602767884,8
-767.8402465234667,4.6666665077209473
-766.60299647250758,10.333333015441895
-765.36598582614351,6.6666665077209473
-764.12921453572744,-0.66666668653488159
-762.89268255262323,4
-761.65638982821292,10
-760.42033631388222,-0.3333333432674408
-759.184521961035,4.3333334922790527
-757.948946721086,12.333333015441895
-756.71361054546833,10
-755.47851338560758,9
-754.24365519296589,5
-753.009035918998,3
-751.77465551518071,3
-750.5405139330087,7
-749.30661112396592,0
-748.0729470395836,12.333333015441895
-746.8395216313711,6.3333334922790527
-745.60633485086328,6
-744.3733866496168,6.3333334922790527
-743.14067697918108,5.6666665077209473
-741.90820579113461,8
-740.67597303705952,2.3333332538604736
-739.44397866855252,6
-738.21222263721756,5
-736.98070489468046,0.3333333432674408
-735.749425392567,7
-734.51838408252479,4.6666665077209473
-733.28758091621239,9.3333330154418945
-732.057015845292,3.3333332538604736
-730.82668882144753,11.666666984558105
-729.59659979637036,1
-728.366748721759,5
-727.13713554934475,5
-725.90776023084072,8
-724.67862271799277,12
-723.449722962554,3.6666667461395264
-722.22106091628848,6.6666665077209473
-720.99263653096386,8.6666669845581055
-719.76444975838785,4.3333334922790527
-718.53650055034268,4.3333334922790527
-717.308788858647,11.333333015441895
-716.08131463512655,-2
-714.85407783161827,11
-713.62707839996983,8.6666669845581055
-712.40031629203258,5.6666665077209473
-711.17379145969062,6.3333334922790527
-709.94750385482075,3.3333332538604736
-708.72145342932527,0.66666668653488159
-707.49564013510644,7.6666665077209473
-706.27006392408839,8.6666669845581055
-705.04472474819522,-3
-703.81962255938379,6.3333334922790527
-702.59475730959639,5.6666665077209473
-701.3701289508117,1.6666666269302368
-700.14573743500478,1.6666666269302368
-698.9215827141652,5.3333334922790527
-697.69766474030075,7
-696.47398346541922,16.333333969116211
-695.25053884156114,12
-694.02733082075611,0.3333333432674408
-692.80435935505557,4
-691.58162439652915,5.3333334922790527
-690.35912589724649,-1
-689.13686380929175,12
-687.91483808476733,11
-686.69304867578649,-4
-685.47149553447343,6.6666665077209473
-684.25017861295237,0.66666668653488159
-683.02909786337659,-1.3333333730697632
-681.80825323790668,6
-680.5876446887105,5
-679.3672721679668,5.6666665077209473
-678.14713562787256,-2.3333332538604736
-676.92723502063564,12
-675.70757029846391,4
-674.48814141360162,3.3333332538604736
-673.26894831827849,9.3333330154418945
-672.04999096475331,11
-670.83126930528488,-0.3333333432674408
-669.61278329215747,7.3333334922790527
-668.39453287765537,1.6666666269302368
-667.176518014081,8
-665.95873865374051,11.666666984558105
-664.7411947489727,8.6666669845581055
-663.5238862520946,16.333333969116211
-662.30681311546687,3
-661.0899752914429,-3.6666667461395264
-659.87337273240155,4.6666665077209473
-658.6570053907144,-1.3333333730697632
-657.44087321878942,7.3333334922790527
-656.22497616902,10
-655.009314193836,9
-653.79388724565979,1
-652.57869527693947,5.3333334922790527
-651.363738240123,11.666666984558105
-650.14901608768014,6.3333334922790527
-648.93452877208438,8.3333330154418945
-647.720276245831,12.666666984558105
-646.5062584614152,8
-645.29247537135416,4
-644.078926928165,3
-642.86561308439377,-5.3333334922790527
-641.65253379257956,15.333333015441895
-640.43968900529035,3.6666667461395264
-639.22707867508689,7
-638.01470275456631,4.3333334922790527
-636.80256119630758,8.3333330154418945
-635.590653952926,1
-634.37898097704056,5
-633.16754222128111,9
-631.95633763828118,7.3333334922790527
-630.745367180707,8.3333330154418945
-629.534630801214,12.333333015441895
-628.32412845248655,10.333333015441895
-627.11386008720547,4
-625.9038256580734,5.6666665077209473
-624.69402511780754,6.6666665077209473
-623.48445841912508,6
-622.27512551476138,8.6666669845581055
-621.0660263574664,7
-619.85716089999733,9
-618.64852909512592,10.333333015441895
-617.44013089563123,4.6666665077209473
-616.2319662543141,5
-615.0240351239645,10.666666984558105
-613.81633745741237,4
-612.60887320749134,1
-611.40164232702409,8.3333330154418945
-610.194644768877,-5.3333334922790527
-608.98788048590177,1
-607.781349430983,6.3333334922790527
-606.57505155700892,1
-605.36898681687126,4.6666665077209473
-604.1631551634764,6.6666665077209473
-602.95755654975983,1.6666666269302368
-601.75219092864245,8.6666669845581055
-600.54705825307065,9
-599.34215847600535,2.6666667461395264
-598.13749155041478,7
-596.93305742927441,8.6666669845581055
-595.72885606557793,4.3333334922790527
-594.52488741232992,-0.3333333432674408
-593.32115142254224,10.333333015441895
-592.117648049245,10.666666984558105
-590.91437724546449,9
-589.71133896426,8.6666669845581055
-588.50853315869062,7.6666665077209473
-587.30595978182646,2
-586.10361878675576,-1
-584.90151012657043,4
-583.69963375437328,6
-582.49798962329442,7.6666665077209473
-581.296577686453,7.6666665077209473
-580.09539789699556,8.3333330154418945
-578.894450208074,4
-577.69373457285474,6.3333334922790527
-576.4932509445116,9
-575.29299927623651,13.666666984558105
-574.09297952122142,3
-572.89319163268192,1.3333333730697632
-571.69363556384451,8.6666669845581055
-570.49431126793752,5.3333334922790527
-569.29521869820383,9.3333330154418945
-568.09635780790632,11.666666984558105
-566.89772855030969,5.3333334922790527
-565.69933087869686,12
-564.50116474635433,1.3333333730697632
-563.30323010658867,1.3333333730697632
-562.1055269127155,5.6666665077209473
-560.90805511805775,7
-559.710814675951,2.3333332538604736
-558.513805539751,11.666666984558105
-557.31702766280978,1.6666666269302368
-556.12048099851017,15.333333015441895
-554.92416550022062,8.6666669845581055
-553.72808112134589,5
-552.53222781529075,8.3333330154418945
-551.33660553547088,-0.66666668653488159
-550.14121423531651,7.3333334922790527
-548.94605386826515,7
-547.75112438777614,13
-546.55642574730518,13
-545.361957900328,4.3333334922790527
-544.167720800333,6
-542.97371440082134,12.333333015441895
-541.77993865529243,12
-540.58639351727652,1.6666666269302368
-539.39307894030026,14.666666984558105
-538.19999487790665,9
-537.00714128365507,4.3333334922790527
-535.81451811110674,4
-534.622125313841,1
-533.42996284544643,12
-532.23803065952234,12.666666984558105
-531.04632870968271,8
-529.85485694955059,9.6666669845581055
-528.66361533275631,8.3333330154418945
-527.47260381295564,9
-526.28182234379165,6.6666665077209473
-525.09127087894194,10
-523.90094937208778,3
-522.71085777691223,7
-521.52099604712748,12.333333015441895
-520.33136413644206,4.3333334922790527
-519.14196199858088,4.6666665077209473
-517.95278958728341,13.666666984558105
-516.76384685629819,4.3333334922790527
-515.57513375937924,8
-514.38665025030423,8.6666669845581055
-513.19839628285263,3
-512.01037181081665,7.6666665077209473
-510.82257678800124,7.3333334922790527
-509.63501116822226,13
-508.44767490530649,2.6666667461395264
-507.26056795309523,3.3333332538604736
-506.07369026543893,5
-504.88704179619526,3.6666667461395264
-503.70062249923831,8.6666669845581055
-502.51443232845486,9
-501.32847123773354,0.66666668653488159
-500.14273918098661,8.3333330154418945
-498.95723611213,6
-497.77196198509228,8.3333330154418945
-496.58691675381124,7.6666665077209473
-495.40210037224642,7
-494.21751279435375,12.333333015441895
-493.03315397410915,7
-491.84902386549584,3.3333332538604736
-490.665122422517,8.6666669845581055
-489.48144959917408,11.333333015441895
-488.29800534949027,3.6666667461395264
-487.11478962749243,8.3333330154418945
-485.93180238722562,3.6666667461395264
-484.74904358273852,2.3333332538604736
-483.5665131681053,4.6666665077209473
-482.38421109738738,12.333333015441895
-481.2021373246771,8.6666669845581055
-480.0202918040759,5.6666665077209473
-478.83867448969067,7.3333334922790527
-477.65728533564106,1.3333333730697632
-476.47612429605579,15.333333015441895
-475.2951913250854,0.3333333432674408
-474.11448637687681,2.3333332538604736
-472.93400940559695,9
-471.75376036542184,8.3333330154418945
-470.57373921054023,8.3333330154418945
-469.39394589515177,4.6666665077209473
-468.21438037346343,8.3333330154418945
-467.03504259970032,8.3333330154418945
-465.8559325280894,0.3333333432674408
-464.67705011287944,13
-463.49839530831923,9.6666669845581055
-462.31996806867937,4
-461.14176834823775,8
-459.96379610127588,13
-458.78605128210074,0.3333333432674408
-457.60853384501752,8.6666669845581055
-456.43124374435138,8.6666669845581055
-455.25418093443295,10
-454.07734536960925,14
-452.90073700422909,6
-451.7243557926613,9.6666669845581055
-450.54820168928381,1.3333333730697632
-449.37227464848911,9.3333330154418945
-448.19657462467148,3.6666667461395264
-447.02110157224524,5.6666665077209473
-445.84585544562833,3.6666667461395264
-444.67083619925324,11
-443.49604378757067,6.6666665077209473
-442.32147816503129,12.333333015441895
-441.14713928610036,3.3333332538604736
-439.97302710525764,14.666666984558105
-438.79914157698659,7
-437.62548265579426,-1.6666666269302368
-436.45205029618774,10.333333015441895
-435.27884445268865,14
-434.10586507982771,2
-432.93311213215566,8
-431.76058556421776,3.3333332538604736
-430.58828533058477,-2
-429.41621138583832,8
-428.24436368456008,10
-427.07274218135353,3
-425.90134683082943,1.3333333730697632
-424.73017758760216,10
-423.55923440631159,1.3333333730697632
-422.38851724159576,5.6666665077209473
-421.21802604811455,5.6666665077209473
-420.04776078052782,10.333333015441895
-418.87772139351546,4.6666665077209473
-417.70790784176643,2
-416.53832007998062,12.333333015441895
-415.36895806286157,7.6666665077209473
-414.19982174513279,2.6666667461395264
-413.03091108152512,6.6666665077209473
-411.86222602678754,5.3333334922790527
-410.69376653566542,10
-409.52553256292776,17.333333969116211
-408.35752406334905,3.3333332538604736
-407.18974099171828,13.333333015441895
-406.02218330282813,7.6666665077209473
-404.85485095149124,9
-403.68774389253122,7.6666665077209473
-402.5208620807698,9.3333330154418945
-401.35420547105241,2.3333332538604736
-400.18777401823172,8
-399.02156767717497,13.333333015441895
-397.85558640275485,9.3333330154418945
-396.68983014985315,1.3333333730697632
-395.52429887336984,-2.6666667461395264
-394.35899252820855,7.6666665077209473
-393.1939110692947,10.333333015441895
-392.02905445155375,7.6666665077209473
-390.8644226299275,2.3333332538604736
-389.70001555936324,12.666666984558105
-388.53583319482641,8.6666669845581055
-387.37187549128976,9.3333330154418945
-386.20814240373875,9.6666669845581055
-385.04463388716613,6.6666665077209473
-383.8813498965792,6
-382.71829038699252,11
-381.55545531343887,-0.66666668653488159
-380.392844630951,11.333333015441895
-379.23045829458351,11.333333015441895
-378.06829625939463,6.6666665077209473
-376.90635848045895,4
-375.74464491285289,3
-374.58315551167289,4.3333334922790527
-373.42189023202263,4.3333334922790527
-372.26084902901857,2
-371.10003185778623,8
-369.93943867346024,4.3333334922790527
-368.77906943119342,7
-367.61892408613858,1.3333333730697632
-366.45900259346672,14.333333015441895
-365.29930490835977,5.3333334922790527
-364.13983098601057,2.6666667461395264
-362.98058078161557,10.666666984558105
-361.82155425039127,4
-360.66275134756324,1.6666666269302368
-359.5041720283607,10.666666984558105
-358.34581624803286,8.3333330154418945
-357.18768396183805,2
-356.02977512504185,6.3333334922790527
-354.87208969291896,10.666666984558105
-353.71462762076044,6.3333334922790527
-352.55738886386462,13
-351.400373377548,-0.3333333432674408
-350.24358111712354,5.3333334922790527
-349.08701203792953,11
-347.93066609530615,4.6666665077209473
-346.77454324460632,2.6666667461395264
-345.61864344119567,10.333333015441895
-344.46296664044894,2
-343.30751279775541,1.6666666269302368
-342.15228186851164,10.333333015441895
-340.99727380812146,9.3333330154418945
-339.84248857200873,5.3333334922790527
-338.68792611559365,5
-337.53358639432554,11
-336.37946936365006,-0.3333333432674408
-335.2255749790329,13.333333015441895
-334.07190319594883,7.6666665077209473
-332.918453969869,1.3333333730697632
-331.76522725630093,9
-330.61222301074304,15
-329.45944118871012,2
-328.30688174573515,11.333333015441895
-327.15454463734568,10
-326.00242981909287,8
-324.85053724653517,7
-323.69886687524559,2.6666667461395264
-322.54741866080076,2.6666667461395264
-321.39619255879552,3.6666667461395264
-320.24518852482652,20
-319.09440651450677,7.3333334922790527
-317.9438464834584,17
-316.79350838731807,4.3333334922790527
-315.64339218173154,8.3333330154418945
-314.49349782234822,3
-313.34382526483751,10
-312.19437446487791,8
-311.04514537814794,6.6666665077209473
-309.89613796035519,7.3333334922790527
-308.74735216720546,4.6666665077209473
-307.59878795441546,10.666666984558105
-306.45044527772006,6
-305.30232409285418,10
-304.1544243555727,15.666666984558105
-303.00674602163963,4.3333334922790527
-301.85928904682078,5.6666665077209473
-300.71205338690925,13.666666984558105
-299.56503899768541,8
-298.41824583496964,4.3333334922790527
-297.27167385456596,13.666666984558105
-296.12532301230749,7
-294.97919326402553,5.6666665077209473
-293.83328456556956,9
-292.6875968728,4
-291.54213014158267,13.666666984558105
-290.39688432779803,14.333333015441895
-289.25185938733557,12
-288.10705527609389,-0.3333333432674408
-286.96247194998614,17
-285.81810936493457,3.6666667461395264
-284.67396747687235,8.6666669845581055
-283.53004624174173,10.333333015441895
-282.38634561549406,2.6666667461395264
-281.24286555409708,7.3333334922790527
-280.09960601352395,13.333333015441895
-278.95656694976424,13.333333015441895
-277.81374831880566,2.3333332538604736
-276.67115007666143,10.333333015441895
-275.52877217934838,9.6666669845581055
-274.38661458289062,8.3333330154418945
-273.24467724332862,6.3333334922790527
-272.10296011671562,10
-270.961463159103,4.6666665077209473
-269.82018632656946,10.666666984558105
-268.67912957519366,11.666666984558105
-267.53829286106156,12.333333015441895
-266.39767614028096,9.3333330154418945
-265.25727936895964,14.333333015441895
-264.11710250322722,13
-262.97714549921329,4
-261.8374083130584,9.6666669845581055
-260.6978909009249,12
-259.55859321897515,6.6666665077209473
-258.41951522338059,14
-257.28065687033632,-1.6666666269302368
-256.14201811603016,7.6666665077209473
-255.00359891667358,6.6666665077209473
-253.86539922848715,0
-252.7274190076987,14
-251.58965821054153,9
-250.45211679326894,12
-249.31479471214516,6.6666665077209473
-248.17769192343076,14.333333015441895
-247.04080838342088,9
-245.90414404839248,9
-244.76769887465525,14
-243.63147281852252,12.666666984558105
-242.49546583631673,9.6666669845581055
-241.35967788436938,9.6666669845581055
-240.22410891902837,3.6666667461395264
-239.08875889664705,11.333333015441895
-237.95362777358059,20.666666030883789
-236.81871550621872,0.66666668653488159
-235.6840220509439,8
-234.54954736414584,6.6666665077209473
-233.41529140224156,14.666666984558105
-232.28125412163718,11
-231.14743547876969,4.3333334922790527
-230.0138354300725,13.333333015441895
-228.88045393199536,7.6666665077209473
-227.74729094100257,17.666666030883789
-226.61434641355845,8
-225.48162030614367,12
-224.349112575248,13
-223.21682317737577,8.3333330154418945
-222.08475206903313,11.333333015441895
-220.95289920674804,12.333333015441895
-219.82126454705212,13
-218.68984804648244,13.333333015441895
-217.5586496615997,8.3333330154418945
-216.427669348961,2.6666667461395264
-215.29690706514521,21.333333969116211
-214.16636276673125,5.6666665077209473
-213.03603641032169,15.666666984558105
-211.90592795251541,6.6666665077209473
-210.77603734992772,14.666666984558105
-209.64636455919026,10
-208.51690953693469,15.333333015441895
-207.38767223980722,17.333333969116211
-206.25865262447223,9.3333330154418945
-205.12985064758868,12.333333015441895
-204.00126626584097,13.333333015441895
-202.87289943590986,11.333333015441895
-201.74475011450158,17.666666030883789
-200.61681825831874,13
-199.48910382408758,11
-198.36160676853797,14
-197.23432704840525,14.666666984558105
-196.10726462043749,10.666666984558105
-194.98041944140277,18
-193.85379146806918,17.666666030883789
-192.72738065721751,14.333333015441895
-191.6011869656395,15.333333015441895
-190.47521035013779,8.6666669845581055
-189.34945076753138,17.666666030883789
-188.22390817463383,7.6666665077209473
-187.09858252828053,14.333333015441895
-185.97347378531958,16.666666030883789
-184.84858190259911,11.333333015441895
-183.72390683699086,15.333333015441895
-182.59944854536116,8.6666669845581055
-181.47520698460175,14.666666984558105
-180.35118211159897,8.3333330154418945
-179.22737388326641,15.333333015441895
-178.1037822565213,19.666666030883789
-176.9804071882827,21.666666030883789
-175.85724863548785,11
-174.73430655509037,17.333333969116211
-173.61158090404206,25.333333969116211
-172.48907163931108,21.666666030883789
-171.36677871787106,19
-170.24470209671563,21
-169.12284173284024,9.3333330154418945
-168.00119758325309,22.666666030883789
-166.8797696049769,26
-165.75855775503624,15.333333015441895
-164.6375619904702,17.666666030883789
-163.51678226832883,24.666666030883789
-162.39621854567667,21.333333969116211
-161.27587077957287,12.666666984558105
-160.15573892710927,28.333333969116211
-159.03582294536864,20
-157.91612279145556,24.333333969116211
-156.79663842247828,20.666666030883789
-155.67736979555957,28.666666030883789
-154.55831686783313,25
-153.43947959643447,24.333333969116211
-152.32085793852275,36.666667938232422
-151.20245185125532,25.666666030883789
-150.08426129180589,35
-148.96628621735545,36
-147.84852658509953,23.666666030883789
-146.73098235223915,40.666667938232422
-145.61365347598803,35
-144.49653991357081,44.666667938232422
-143.3796416222176,37.666667938232422
-142.26295855917488,40
-141.14649068169638,33
-140.03023794704677,43.666667938232422
-138.91420031250163,37.666667938232422
-137.79837773533836,40.666667938232422
-136.68277017286164,53.333332061767578
-135.56737758237068,38.333332061767578
-134.45219992117563,48.666667938232422
-133.33723714661573,47
-132.22248921601567,61.333332061767578
-131.10795608672197,54.333332061767578
-129.99363771609387,64.666664123535156
-128.87953406149063,61
-127.76564508029878,69.666664123535156
-126.65197072989395,65.333335876464844
-125.53851096768085,76.333335876464844
-124.4252657510624,83.666664123535156
-123.31223503745423,85.333335876464844
-122.19941878428472,96
-121.08681694899133,94.666664123535156
-119.97442948901517,104.33333587646484
-118.8622563618228,114.66666412353516
-117.75029752487717,121.66666412353516
-116.63855293565393,130.66667175292969
-115.52702255164331,136.33332824707031
-114.41570633034462,142
-113.30460422925898,163
-112.19371620590573,161
-111.08304221782055,186
-109.97258222253549,219
-108.86233617759535,193.33332824707031
-107.75230404056492,205.33332824707031
-106.64248576901082,202.33332824707031
-105.53288132051239,185.66667175292969
-104.42349065265807,195.66667175292969
-103.31431372304178,176.33332824707031
-102.20535048927377,177
-101.09660090898069,165
-99.988064939780088,171
-98.879742539320432,158.66667175292969
-97.771633665246554,166.66667175292969
-96.6637382752142,150.66667175292969
-95.556056326899125,154.66667175292969
-94.448587777975263,156.66667175292969
-93.34133258613474,159.33332824707031
-92.234290709076959,147.66667175292969
-91.1274621045086,169.66667175292969
-90.020846730150879,158.66667175292969
-88.914444543732316,159.33332824707031
-87.808255502995962,161.33332824707031
-86.7022795656867,155.66667175292969
-85.596516689563941,156.66667175292969
-84.490966832401682,141
-83.385629951977535,162
-82.280506006080032,134.33332824707031
-81.175594952508618,145.33332824707031
-80.070896749077292,148.33332824707031
-78.966411353598232,139.66667175292969
-77.862138723905446,132.33332824707031
-76.7580788178384,131.33332824707031
-75.654231593249278,127.66666412353516
-74.550597007988472,126.66666412353516
-73.447175019935457,126.66666412353516
-72.3439655869679,130.66667175292969
-71.240968666974368,134
-70.138184217854359,131.33332824707031
-69.035612197516457,134.66667175292969
-67.933252563881979,132.33332824707031
-66.831105274881338,138.66667175292969
-65.7291702884504,157.66667175292969
-64.62744756254142,157.66667175292969
-63.525937055112081,168
-62.424638724134638,181.66667175292969
-61.323552527588618,198.33332824707031
-60.222678423459,195.66667175292969
-59.122016369747143,191.33332824707031
-58.02156632446713,226
-56.92132824563123,218.66667175292969
-55.821302091271718,222.66667175292969
-54.721487819426329,223
-53.621885388145529,239
-52.522494755494336,247.33332824707031
-51.423315879526854,240
-50.324348718333567,246.66667175292969
-49.225593230001323,284.66665649414063
-48.12704937262788,283.33334350585938
-47.028717104320094,291
-45.930596383199372,327.33334350585938
-44.832687167392578,332.33334350585938
-43.734989415037489,344.33334350585938
-42.637503084284617,353
-41.540228133289929,384.33334350585938
-40.443164520223945,365.33334350585938
-39.346312203260823,352.66665649414063
-38.249671140592909,344.33334350585938
-37.153241290412552,346.33334350585938
-36.057022610932108,333.33334350585938
-34.961015060369391,341.33334350585938
-33.865218596949489,349
-32.769633178906588,328.33334350585938
-31.6742587644967,320
-30.579095311970377,312
-29.484142779594549,304.66665649414063
-28.389401125643417,319.33334350585938
-27.29487030841301,304.33334350585938
-26.200550286193902,319
-25.106441017293037,329
-24.012542460020995,324.33334350585938
-22.918854572712007,316.33334350585938
-21.82537731370212,312
-20.7321106413292,321
-19.639054513960218,324
-18.546208889949412,340.66665649414063
-17.453573727678304,342.33334350585938
-16.361148985530235,360.66665649414063
-15.268934621899461,363
-14.176930595191152,383.66665649414063
-13.085136863823209,411.66665649414063
-11.993553386213534,419.33334350585938
-10.902180120801859,452.33334350585938
-9.8110170260297309,461.66665649414063
-8.720064060353252,492.66665649414063
-7.62932118223398,514.66668701171875
-6.5387883501425677,477.33334350585938
-5.448465522567858,311.66665649414063
-4.3583526579986938,144.33332824707031
-3.2684497149384697,26.666666030883789
-2.1787566519033135,12.666666984558105
-1.0892734274111717,4
0,30.333333969116211
1.0890636717958841,144.33332824707031
2.1779176294185163,324
3.266561914309932,482
4.354996567899434,526
5.443221631601773,526.66668701171875
6.5312371468298807,491
7.6190431549803179,462
8.7066396974460076,441
9.7940268156035017,426.66665649414063
10.881204550825714,416
11.968172944472826,392
13.054932037890467,369
14.141481872427903,365.66665649414063
15.227822489416212,358.66665649414063
16.313953930162825,336.66665649414063
17.399876235997,342.66665649414063
18.485589448209794,331
19.571093608095907,327.33334350585938
20.656388756942761,347
21.74147493601231,343.66665649414063
22.826352186579243,345
23.911020549890964,336
24.995480067191238,336.33334350585938
26.079730779716556,323
27.163772728685217,320
28.247605955324616,338
29.331230500825768,359
30.414646406390602,377.66665649414063
31.49785371319922,377.33334350585938
32.58085246243354,359
33.663642695257295,371.33334350585938
34.746224452830575,390.66665649414063
35.828597776289826,369.66665649414063
36.910762706780588,385.66665649414063
37.992719285430212,397
39.074467553356953,379.33334350585938
40.156007551660878,398
41.237339321447507,377.33334350585938
42.318462903804175,339.33334350585938
43.39937833980548,347.33334350585938
44.48008567053148,324.33334350585938
45.560584937029489,303.66665649414063
46.6408761803541,290.66665649414063
47.720959441552623,292.33334350585938
48.80083476164873,262.66665649414063
49.880502181658812,265
50.9599617426029,266.33334350585938
52.039213485481014,256
53.118257451287718,255.66667175292969
54.197093680997568,250.33332824707031
55.275722215592396,246.66667175292969
56.354143096026746,242
57.432356363258805,235.33332824707031
58.510362058235842,205.33332824707031
59.588160221886938,202.33332824707031
60.665750895142992,195
61.743134118913076,199.33332824707031
62.820309934106263,177.33332824707031
63.89727838161707,172
64.974039502334563,165.66667175292969
66.050593337131431,164
67.12693992687673,154.33332824707031
68.203079312430418,155
69.2790115346379,162.66667175292969
70.354736634337314,154
71.43025465235587,161.66667175292969
72.505565629522607,159
73.580669606635638,151.66667175292969
74.655566624502171,155.66667175292969
75.730256723907587,157.66667175292969
76.804739945639085,168
77.879016330462036,162
78.953085919145451,180.33332824707031
80.026948752434691,177.66667175292969
81.10060487107512,183
82.174054315803,187.66667175292969
83.247297127336424,186.66667175292969
84.320333346397092,195.33332824707031
85.39316301368126,191.33332824707031
86.465786169887,205
87.538202855701456,195.66667175292969
88.610413111804519,198.66667175292969
89.682416978852416,192
90.754214497510475,197.33332824707031
91.825805708424014,198
92.897190652229256,183
93.968369369558786,185.66667175292969
95.039341901027,193.66667175292969
96.110108287242838,193.33332824707031
97.180668568809779,205.66667175292969
98.251022786316753,221.33332824707031
99.321170980345414,222.66667175292969
100.39111319146468,221
101.46084946023984,241.66667175292969
102.53037982722162,251
103.59970433295166,244
104.66882301796431,242
105.73773592278485,252.33332824707031
106.8064430879258,241.33332824707031
107.87494455389424,223.66667175292969
108.94324036118269,221.33332824707031
110.01133055028004,216.33332824707031
111.07921516166243,191.66667175292969
112.1468942357933,175
113.21436781313787,172.66667175292969
114.28163593413956,158.66667175292969
115.3486986392345,140
116.41555596884973,148.33332824707031
117.48220796341775,121.66666412353516
118.54865466334195,127.33333587646484
119.61489610901845,104.33333587646484
120.68093234084154,108.33333587646484
121.74676339919642,93.333335876464844
122.81238932445376,104.66666412353516
123.87781015697874,81
124.94302593711836,86.666664123535156
126.00803670522509,72.666664123535156
127.07284250162593,69
128.13744336665695,76.333335876464844
129.20183934062334,72.666664123535156
130.26603046383752,69.333335876464844
131.33001677659377,65.333335876464844
132.3937983191845,63.333332061767578
133.4573751318876,61
134.52074725496641,58
135.58391472868425,53.333332061767578
136.6468775932899,50
137.70963588902487,51.333332061767578
138.77218965612155,52.333332061767578
139.83453893480146,48.666667938232422
140.89668376527698,55.666667938232422
141.95862418775323,54.333332061767578
143.02036024241897,41.666667938232422
144.0818919694666,48
145.14321940906302,48.666667938232422
146.20434260137881,37.333332061767578
147.26526158656816,53.333332061767578
148.32597640478161,36.333332061767578
149.38648709615154,37.333332061767578
150.4467937008103,42.666667938232422
151.50689625887571,38.666667938232422
152.5667948104583,35.666667938232422
153.62648939565406,42.333332061767578
154.68598005455897,35
155.74526682725445,34.333332061767578
156.8043497538074,35
157.86322887428469,16.666666030883789
158.9219042287441,35
159.98037585721977,36.333332061767578
161.03864379975494,26.666666030883789
162.096708096371,24.666666030883789
163.15456878708392,22.333333969116211
164.21222591190417,26
165.2696795108277,29.666666030883789
166.32692962384135,26
167.38397629092287,30.666666030883789
168.4408195520482,24
169.4974594471696,26
170.55389601624302,19
171.61012929921162,23
172.66615933600406,23.333333969116211
173.7219861665435,31.666666030883789
174.7776098307495,26.333333969116211
175.83303036851612,19.666666030883789
176.88824781974836,21.666666030883789
177.94326222432755,14
178.99807362213323,27.333333969116211
180.05268205302673,22.666666030883789
181.10708755687847,22
182.16129017352432,18
183.21528994280743,17
184.26908690456366,25.333333969116211
185.32268109860706,20.666666030883789
186.37607256475167,21
187.42926134280606,22.666666030883789
188.482247472557,22.333333969116211
189.53503099378759,16
190.58761194627914,14.666666984558105
191.63999036979294,16.333333969116211
192.692166304083,20
193.7441397888997,16.333333969116211
194.79591086397886,18
195.8474795690563,15.333333015441895
196.89884594384057,20.666666030883789
197.95001002804929,11.666666984558105
199.00097186138009,12.666666984558105
200.05173148352878,16.666666030883789
201.10228893417116,17
202.15264425298847,13.333333015441895
203.2027974796365,12.333333015441895
204.25274865377651,13.333333015441895
205.30249781504972,17
206.35204500309737,16.666666030883789
207.4013902575407,20.666666030883789
208.45053361800274,12.333333015441895
209.49947512409562,11.333333015441895
210.54821481540785,17.333333969116211
211.59675273154062,10.333333015441895
212.64508891206788,13.333333015441895
213.69322339656719,20.666666030883789
214.74115622459976,6.6666665077209473
215.78888743571224,14.333333015441895
216.83641706946219,15.666666984558105
217.88374516537988,12
218.93087176298468,12.333333015441895
219.97779690180323,16.666666030883789
221.02452062133852,6.3333334922790527
222.0710429610881,14
223.11736396054403,12.666666984558105
224.16348365918566,11
225.2094020964887,15.666666984558105
226.25511931190886,17.666666030883789
227.3006353449,21.666666030883789
228.34595023491056,14
229.39106402137622,20.333333969116211
230.43597674371449,17.333333969116211
231.48068844134468,18.666666030883789
232.52519915367702,10.333333015441895
233.569508920109,10
234.61361778002538,17.333333969116211
235.65752577281455,17.666666030883789
236.70123293784127,8
237.74473931446664,16
238.78804494204451,21.666666030883789
239.83114985991779,17.333333969116211
240.87405410742394,8
241.91675772388407,16.333333969116211
242.95926074861745,21.333333969116211
244.00156322093062,21.333333969116211
245.04366518011921,15.666666984558105
246.08556666547338,8
247.12726771627604,10.666666984558105
248.16876837179188,13.666666984558105
249.21006867128381,16.666666030883789
250.25116865401105,7.3333334922790527
251.29206835920559,14
252.33276782611392,5.6666665077209473
253.37326709395347,12.666666984558105
254.41356620194165,10.666666984558105
255.45366518928495,14
256.49356409518441,10.666666984558105
257.53326295883016,15.333333015441895
258.57276181939596,13
259.61206071605739,14
260.65115968797545,11
261.69005877429845,18.333333969116211
262.72875801417831,2.3333332538604736
263.76725744674513,18.333333969116211
264.80555711111992,15
265.84365704643096,13.333333015441895
266.88155729177379,27.666666030883789
267.91925788625122,20.333333969116211
268.95675886895515,13.666666984558105
269.99406027896839,15.666666984558105
271.03116215535192,12.666666984558105
272.06806453717945,15
273.10476746349923,8.6666669845581055
274.14127097334858,10.333333015441895
275.17757510577758,15.666666984558105
276.21367989980354,11.666666984558105
277.24958539444378,18
278.28529162870836,11.333333015441895
279.32079864159641,17
280.35610647209614,7.3333334922790527
281.39121515919214,10.666666984558105
282.42612474185262,19.666666030883789
283.46083525904578,19
284.49534674972347,11.666666984558105
285.52965925283388,15.666666984558105
286.56377280730703,14
287.59768745207475,2
288.63140322605432,10.666666984558105
289.66492016815391,10.666666984558105
290.6982383172799,10.333333015441895
291.73135771231318,10.666666984558105
292.76427839214739,4
293.79700039564887,9
294.82952376168032,6.6666665077209473
295.86184852910264,14.333333015441895
296.89397473676581,15
297.92590242349979,17.666666030883789
298.95763162813637,11.666666984558105
299.9891623894946,11.333333015441895
301.02049474638625,17
302.05162873761219,14.333333015441895
303.082564401966,6
304.1133017782322,9.3333330154418945
305.14384090518251,16.666666030883789
306.1741818215869,14.666666984558105
307.20432456620438,19.333333969116211
308.23426917777579,3.6666667461395264
309.26401569504924,7.6666665077209473
310.29356415674738,10
311.32291460160013,9
312.35206706831377,11
313.38102159559276,16.333333969116211
314.40977822213063,11.333333015441895
315.43833698661547,12.666666984558105
316.46669792772627,12.333333015441895
317.49486108412748,16.333333969116211
318.52282649447989,15
319.55059419743338,12.333333015441895
320.5781642316324,11.666666984558105
321.60553663570317,11.666666984558105
322.63271144827559,11
323.65968870795768,12.333333015441895
324.68646845335934,8.6666669845581055
325.71305072307769,8.6666669845581055
326.73943555570077,17.333333969116211
327.76562298980934,8
328.79161306396782,19.666666030883789
329.81740581674421,8
330.84300128668838,6.6666665077209473
331.86839951234651,16
332.89360053224482,15.333333015441895
333.9186043849204,13.333333015441895
334.9434111088849,11
335.96802074264451,12.666666984558105
336.9924333247036,8
338.016648893552,17.666666030883789
339.04066748766672,12.666666984558105
340.06448914552857,13.333333015441895
341.08811390559458,16
342.11154180632184,12.333333015441895
343.13477288616014,7
344.15780718354108,6.6666665077209473
345.1806447368981,16
346.20328558465189,15.333333015441895
347.22572976520678,15.666666984558105
348.24797731697436,11
349.2700282783444,12.666666984558105
350.29188268769758,16
351.3135405834164,5.6666665077209473
352.3350020038597,4.3333334922790527
353.35626698739179,12.333333015441895
354.37733557236061,10
355.39820779711044,13
356.41888369996741,15
357.43936331925579,10.333333015441895
358.4596466932926,6.6666665077209473
359.47973386038029,16.333333969116211
360.4996248588177,0
361.51931972688908,12
362.53881850287689,10
363.55812122505267,15.333333015441895
364.57722793167341,9
365.59613866099608,16
366.61485345126675,10
367.63337234071332,10.333333015441895
368.65169536756548,6
369.66982257004383,21.333333969116211
370.68775398635444,8.6666669845581055
371.70548965469789,9.6666669845581055
372.7230296132675,8
373.74037390024205,15.666666984558105
374.75752255379666,1.3333333730697632
375.7744756120992,9.6666669845581055
376.79123311330659,14.666666984558105
377.80779509556305,11.333333015441895
378.82416159700733,9.6666669845581055
379.84033265577273,10.666666984558105
380.856308309978,10.666666984558105
381.87208859774,13.666666984558105
382.88767355716118,12.666666984558105
383.90306322633296,7.6666665077209473
384.918257643345,17.333333969116211
385.933256846276,10.666666984558105
386.94806087319375,20
387.96266976215884,9.3333330154418945
388.97708355122268,5
389.99130227842943,12.333333015441895
391.005325981816,12.666666984558105
392.01915469940104,9.3333330154418945
393.03278846921057,16.333333969116211
394.04622732924145,13
395.05947131750145,6.6666665077209473
396.072520471982,11
397.08537483066175,15
398.09803443151395,3.3333332538604736
399.11049931250454,13
400.12276951158856,12.666666984558105
401.13484506671739,12
402.14672601582424,9
403.15841239684596,19
404.16990424769574,14.333333015441895
405.18120160629041,11.666666984558105
406.19230451053772,11
407.20321299832722,7
408.21392710754844,14
409.22444687608004,11.666666984558105
410.2347723417879,9.3333330154418945
411.24490354253794,21.333333969116211
412.25484051617786,1.6666666269302368
413.26458330055357,17
414.27413193350003,10.333333015441895
415.28348645284314,9.6666669845581055
416.29264689639967,6.3333334922790527
417.30161330197734,7.6666665077209473
418.310385707382,19.333333969116211
419.31896415039773,12
420.327348668814,8
421.33553930040034,19.666666030883789
422.34353608292622,9
423.35133905414659,11.333333015441895
424.35894825181094,2.3333332538604736
425.366363713656,9.6666669845581055
426.37358547742224,16
427.38061358082268,9.3333330154418945
428.38744806157592,10.666666984558105
429.39408895738779,10.333333015441895
430.40053630595321,7.3333334922790527
431.40679014495618,10.333333015441895
432.41285051209161,13.333333015441895
433.41871744501259,10
434.42439098139221,9.3333330154418945
435.42987115888172,7.3333334922790527
436.43515801512694,5
437.4402515877664,7.3333334922790527
438.44515191442224,7
439.44985903272209,12
440.45437298026809,13
441.45869379467149,9
442.4628215135217,11.666666984558105
443.46675617440451,9
444.47049781489659,13
445.47404647256735,10.666666984558105
446.47740218497347,11.333333015441895
447.480564989668,10
448.483534924193,19.666666030883789
449.48631202608703,6
450.48889633286853,20.333333969116211
451.49128788205962,19.333333969116211
452.49348671116604,11.666666984558105
453.49549285768262,9.3333330154418945
454.49730635911328,13.666666984558105
455.49892725292921,12.333333015441895
456.50035557661067,8.3333330154418945
457.50159136762159,19.333333969116211
458.50263466341676,16
459.503485501451,9.6666669845581055
460.50414391915729,7.3333334922790527
461.50460995397043,17.333333969116211
462.5048836433125,18
463.50496502460373,5
464.50485413524257,17
465.50455101262742,12.666666984558105
466.50405569415489,4.6666665077209473
467.50336821719429,17.333333969116211
468.50248861912587,11
469.50141693731166,18.333333969116211
470.50015320910279,18
471.49869747185039,13.333333015441895
472.49704976288922,14.666666984558105
473.49521011955221,8.6666669845581055
474.49317857915776,9
475.49095517901515,12.666666984558105
476.48853995643731,17
477.48593294871353,15.666666984558105
478.48313419313126,11.333333015441895
479.48014372697253,11
480.47696158750477,25
481.47358781198818,14.333333015441895
482.47002243768111,10
483.46626550182373,11.333333015441895
484.46231704165621,10
485.45817709440053,14.333333015441895
486.45384569728049,18
487.44932288750715,7.6666665077209473
488.44460870228249,14
489.43970317880303,3
490.4346063542489,23.333333969116211
491.42931826580025,1
492.4238389506263,10.666666984558105
493.41816844588539,19.666666030883789
494.41230678873217,11.333333015441895
495.40625401630859,5.3333334922790527
496.40001016574752,13
497.39357527418179,12.333333015441895
498.3869493787206,12.333333015441895
499.3801325164859,13.333333015441895
500.37312472456688,16.333333969116211
501.36592604006182,18.333333969116211
502.35853650005447,19
503.35095614162128,11.333333015441895
504.34318500183144,13
505.33522311774323,9.6666669845581055
506.32707052640581,15
507.3187272648629,10.666666984558105
508.31019337014914,9.3333330154418945
509.30146887928822,15.666666984558105
510.29255382930023,7.6666665077209473
511.28344825719068,14.333333015441895
512.27415219996328,7.6666665077209473
513.26466569460717,15.333333015441895
514.25498877810969,12.333333015441895
515.24512148744543,7.6666665077209473
516.23506385957626,13.666666984558105
517.22481593147131,14
518.214377740067,14
519.20374932231425,8
520.19293071514585,16.666666030883789
521.18192195548909,14.666666984558105
522.17072308025308,12
523.15933412635422,14.666666984558105
524.14775513068525,8.6666669845581055
525.13598613014619,7.6666665077209473
526.12402716160977,25.666666030883789
527.11187826196146,11
528.09953946806127,18.666666030883789
529.08701081677282,19.666666030883789
530.07429234493793,10.666666984558105
531.06138408940751,16
532.048286087007,14.333333015441895
533.03499837456729,11.333333015441895
534.0215209889011,15
535.00785396682113,11.333333015441895
535.99399734512008,17.333333969116211
536.97995116059792,9.6666669845581055
537.965715450031,6.3333334922790527
538.95129025019924,15
539.93667559786809,16.333333969116211
540.921871529792,9
541.90687808272924,14.666666984558105
542.89169529341052,12
543.87632319857767,13
544.86076183495788,7
545.84501123925838,11.666666984558105
546.82907144819546,10.666666984558105
547.8129424984636,10.333333015441895
548.7966244267609,8.3333330154418945
549.78011726976547,5
550.76342106415723,11.666666984558105
551.74653584660155,7.6666665077209473
552.7294616537547,17.666666030883789
553.71219852227114,16.666666030883789
554.69474648879077,7.3333334922790527
555.677105589948,15.666666984558105
556.65927586237194,12.333333015441895
557.64125734267327,4.3333334922790527
558.62305006746465,15
559.604654073346,8.6666669845581055
560.58606939691163,12
561.56729607475063,16
562.54833414342647,7.6666665077209473
563.5291836395154,17
564.50984459957726,12.333333015441895
565.490317060161,14.333333015441895
566.4706010578102,19.333333969116211
567.450696629061,12.333333015441895
568.43060381044052,15.666666984558105
569.41032263846137,6.3333334922790527
570.38985314963975,7.3333334922790527
571.36919538047732,10.333333015441895
572.348349367463,8.6666669845581055
573.32731514708939,12.333333015441895
574.30609275582538,19
575.28468223014534,3.6666667461395264
576.26308360651274,18.333333969116211
577.24129692136921,16.666666030883789
578.219322211171,9.3333330154418945
579.197159512345,12.333333015441895
580.17480886132762,12
581.15227029453308,10.333333015441895
582.12954384837394,14
583.10662955925181,19
584.08352746356286,17
585.06023759769778,13
586.03675999802908,8
587.01309470092929,14.666666984558105
587.98924174276181,15
588.965201159881,11
589.940972988632,17.666666030883789
590.916557265351,11
591.89195402637051,20.666666030883789
592.86716330800846,4.3333334922790527
593.84218514657914,15
594.81701957839141,12
595.79166663973774,5.3333334922790527
596.76612636690516,13
597.74039879617885,13.666666984558105
598.71448396382948,17.666666030883789
599.68838190611859,10
600.66209265930229,12.333333015441895
601.63561625963666,6.6666665077209473
602.60895274334871,19.333333969116211
603.58210214668,7
604.55506450584653,23
605.52783985706992,10.666666984558105
606.50042823655167,18
607.472829680497,9.6666669845581055
608.44504422508908,20
609.41707190651687,22.333333969116211
610.38891276095092,12.333333015441895
611.36056682456,23.333333969116211
612.332034133502,14.666666984558105
613.3033147239239,9.3333330154418945
614.2744086319708,23.333333969116211
615.24531589377693,13.333333015441895
616.216036545462,13
617.18657062315287,11.666666984558105
618.15691816295475,20
619.12707920096727,4.6666665077209473
620.09705377328282,17.333333969116211
621.06684191599379,12
622.03644366517074,13
623.0058590568824,11
623.97508812719207,21.333333969116211
624.94413091215029,6.3333334922790527
625.912987447804,6
626.88165777019094,11.333333015441895
627.85014191533446,8
628.81843991925962,17.333333969116211
629.78655181797694,13
630.75447764748969,17
631.72221744379385,12
632.68977124288176,9.6666669845581055
633.65713908072576,11.333333015441895
634.62432099330545,10
635.59131701657861,8
636.55812718650486,18.666666030883789
637.52475153902742,12.666666984558105
638.49119011009134,16.666666030883789
639.45744293562529,9.6666669845581055
640.42351005155251,10.333333015441895
641.38939149379257,20.333333969116211
642.355087298245,5.3333334922790527
643.32059750081135,15.333333015441895
644.28592213738557,7
645.25106124385456,17.333333969116211
646.216014856087,7.6666665077209473
647.18078300994785,5
648.1453657413058,8.6666669845581055
649.10976308600038,19.333333969116211
650.07397507988208,9.6666669845581055
651.03800175878678,15.666666984558105
652.00184315853767,9.6666669845581055
652.96549931495247,15.333333015441895
653.92897026384526,4
654.89225604101739,16.666666030883789
655.85535668226476,21.666666030883789
656.81827222337415,13.666666984558105
657.78100270012328,15.666666984558105
658.74354814828257,10
659.70590860361335,15
660.66808410187514,16
661.63007467881289,10.333333015441895
662.59188037016247,7.3333334922790527
663.55350121165611,12
664.514937239017,12
665.47618848796083,8.6666669845581055
666.4372549941927,21
667.39813679341023,16.333333969116211
668.35883392130745,11.333333015441895
669.31934641356565,8
670.27967430585886,12
671.23981763385382,18
672.19977643321,11.333333015441895
673.15955073957775,10
674.119140588602,14.666666984558105
675.07854601591134,11
676.03776705714154,4
676.99680374790478,12.333333015441895
677.95565612381506,4
678.91432422047183,23
679.87280807347634,16.333333969116211
680.83110771841166,12
681.78922319085541,18
682.74715452638156,12
683.70490176055318,11.666666984558105
684.66246492892424,9.6666669845581055
