-777.74687133807856,28.600000381469727
-776.50770429765,38.400001525878906
-775.26877705141487,37.799999237060547
-774.03008955063888,35.799999237060547
-772.79164174658763,37
-771.55343359055223,40.400001525878906
-770.31546503381287,38.400001525878906
-769.07773602767884,41.799999237060547
-767.8402465234667,41.599998474121094
-766.60299647250758,35.599998474121094
-765.36598582614351,36
-764.12921453572744,38.599998474121094
-762.89268255262323,38.599998474121094
-761.65638982821292,37
-760.42033631388222,38.400001525878906
-759.184521961035,33.599998474121094
-757.948946721086,37.400001525878906
-756.71361054546833,41.599998474121094
-755.47851338560758,32.599998474121094
-754.24365519296589,47.599998474121094
-753.009035918998,42.599998474121094
-751.77465551518071,46
-750.5405139330087,43.400001525878906
-749.30661112396592,44.400001525878906
-748.0729470395836,42.400001525878906
-746.8395216313711,40.799999237060547
-745.60633485086328,34
-744.3733866496168,39
-743.14067697918108,35.599998474121094
-741.90820579113461,42.400001525878906
-740.67597303705952,33.799999237060547
-739.44397866855252,40
-738.21222263721756,39.200000762939453
-736.98070489468046,43
-735.749425392567,38.200000762939453
-734.51838408252479,33.200000762939453
-733.28758091621239,41
-732.057015845292,34.799999237060547
-730.82668882144753,30.799999237060547
-729.59659979637036,45.599998474121094
-728.366748721759,35.799999237060547
-727.13713554934475,42.799999237060547
-725.90776023084072,40
-724.67862271799277,39.799999237060547
-723.449722962554,38
-722.22106091628848,32.599998474121094
-720.99263653096386,39.599998474121094
-719.76444975838785,34.200000762939453
-718.53650055034268,45
-717.308788858647,30.799999237060547
-716.08131463512655,39.400001525878906
-714.85407783161827,38
-713.62707839996983,33.799999237060547
-712.40031629203258,35.200000762939453
-711.17379145969062,34
-709.94750385482075,34.599998474121094
-708.72145342932527,32.400001525878906
-707.49564013510644,38.599998474121094
-706.27006392408839,28.200000762939453
-705.04472474819522,35.200000762939453
-703.81962255938379,36
-702.59475730959639,36.799999237060547
-701.3701289508117,30.200000762939453
-700.14573743500478,48.799999237060547
-698.9215827141652,42
-697.69766474030075,34.400001525878906
-696.47398346541922,40.400001525878906
-695.25053884156114,35
-694.02733082075611,39
-692.80435935505557,41.400001525878906
-691.58162439652915,32
-690.35912589724649,39.200000762939453
-689.13686380929175,36.200000762939453
-687.91483808476733,34.599998474121094
-686.69304867578649,36.400001525878906
-685.47149553447343,37.400001525878906
-684.25017861295237,35.599998474121094
-683.02909786337659,40
-681.80825323790668,36.200000762939453
-680.5876446887105,38.799999237060547
-679.3672721679668,34.200000762939453
-678.14713562787256,39.200000762939453
-676.92723502063564,38.599998474121094
-675.70757029846391,32
-674.48814141360162,32.799999237060547
-673.26894831827849,37.200000762939453
-672.04999096475331,27.399999618530273
-670.83126930528488,35.599998474121094
-669.61278329215747,39.200000762939453
-668.39453287765537,24.399999618530273
-667.176518014081,35
-665.95873865374051,35.400001525878906
-664.7411947489727,39.799999237060547
-663.5238862520946,29.200000762939453
-662.30681311546687,38
-661.0899752914429,35.799999237060547
-659.87337273240155,36.799999237060547
-658.6570053907144,36.200000762939453
-657.44087321878942,35.200000762939453
-656.22497616902,37.200000762939453
-655.009314193836,33.799999237060547
-653.79388724565979,37.599998474121094
-652.57869527693947,29.600000381469727
-651.363738240123,38
-650.14901608768014,31.200000762939453
-648.93452877208438,34.200000762939453
-647.720276245831,35.200000762939453
-646.5062584614152,34.200000762939453
-645.29247537135416,31.200000762939453
-644.078926928165,24.799999237060547
-642.86561308439377,37
-641.65253379257956,35.200000762939453
-640.43968900529035,37.200000762939453
-639.22707867508689,28.600000381469727
-638.01470275456631,36.599998474121094
-636.80256119630758,31.200000762939453
-635.590653952926,31.200000762939453
-634.37898097704056,34.400001525878906
-633.16754222128111,33
-631.95633763828118,31.200000762939453
-630.745367180707,34.599998474121094
-629.534630801214,29.600000381469727
-628.32412845248655,34.599998474121094
-627.11386008720547,33
-625.9038256580734,31.200000762939453
-624.69402511780754,35
-623.48445841912508,33.200000762939453
-622.27512551476138,34.400001525878906
-621.0660263574664,30.799999237060547
-619.85716089999733,30.399999618530273
-618.64852909512592,40.200000762939453
-617.44013089563123,34.200000762939453
-616.2319662543141,29.799999237060547
-615.0240351239645,31
-613.81633745741237,34.799999237060547
-612.60887320749134,30.799999237060547
-611.40164232702409,32.599998474121094
-610.194644768877,29.799999237060547
-608.98788048590177,36.799999237060547
-607.781349430983,27.799999237060547
-606.57505155700892,29.399999618530273
-605.36898681687126,36.599998474121094
-604.1631551634764,28.399999618530273
-602.95755654975983,32.200000762939453
-601.75219092864245,34
-600.54705825307065,32.400001525878906
-599.34215847600535,34.799999237060547
-598.13749155041478,29
-596.93305742927441,35.400001525878906
-595.72885606557793,31
-594.52488741232992,36.799999237060547
-593.32115142254224,24
-592.117648049245,34.400001525878906
-590.91437724546449,29.200000762939453
-589.71133896426,30.399999618530273
-588.50853315869062,31.600000381469727
-587.30595978182646,31.600000381469727
-586.10361878675576,34.599998474121094
-584.90151012657043,23.200000762939453
-583.69963375437328,34.599998474121094
-582.49798962329442,31.399999618530273
-581.296577686453,35
-580.09539789699556,32
-578.894450208074,35.200000762939453
-577.69373457285474,44.200000762939453
-576.4932509445116,41.599998474121094
-575.29299927623651,34.400001525878906
-574.09297952122142,27.200000762939453
-572.89319163268192,33.400001525878906
-571.69363556384451,28.399999618530273
-570.49431126793752,28.600000381469727
-569.29521869820383,38.599998474121094
-568.09635780790632,25.799999237060547
-566.89772855030969,27.799999237060547
-565.69933087869686,34.200000762939453
-564.50116474635433,27.600000381469727
-563.30323010658867,26.200000762939453
-562.1055269127155,26.799999237060547
-560.90805511805775,32.200000762939453
-559.710814675951,31.799999237060547
-558.513805539751,32.400001525878906
-557.31702766280978,34.200000762939453
-556.12048099851017,26.399999618530273
-554.92416550022062,35
-553.72808112134589,30.200000762939453
-552.53222781529075,35.200000762939453
-551.33660553547088,28.600000381469727
-550.14121423531651,33.799999237060547
-548.94605386826515,26
-547.75112438777614,32.400001525878906
-546.55642574730518,29.200000762939453
-545.361957900328,30.600000381469727
-544.167720800333,31.399999618530273
-542.97371440082134,32
-541.77993865529243,32.799999237060547
-540.58639351727652,22.200000762939453
-539.39307894030026,29.600000381469727
-538.19999487790665,30
-537.00714128365507,22
-535.81451811110674,32.200000762939453
-534.622125313841,19
-533.42996284544643,28.200000762939453
-532.23803065952234,37.400001525878906
-531.04632870968271,30.399999618530273
-529.85485694955059,32.400001525878906
-528.66361533275631,27.799999237060547
-527.47260381295564,39
-526.28182234379165,30.399999618530273
-525.09127087894194,35.599998474121094
-523.90094937208778,24.600000381469727
-522.71085777691223,34.400001525878906
-521.52099604712748,23.600000381469727
-520.33136413644206,30.799999237060547
-519.14196199858088,27.200000762939453
-517.95278958728341,29.799999237060547
-516.76384685629819,27
-515.57513375937924,30
-514.38665025030423,26.799999237060547
-513.19839628285263,24
-512.01037181081665,27
-510.82257678800124,31.399999618530273
-509.63501116822226,22.600000381469727
-508.44767490530649,34.200000762939453
-507.26056795309523,27.799999237060547
-506.07369026543893,28
-504.88704179619526,29
-503.70062249923831,27.799999237060547
-502.51443232845486,25.399999618530273
-501.32847123773354,30.799999237060547
-500.14273918098661,27.600000381469727
-498.95723611213,32.200000762939453
-497.77196198509228,30.600000381469727
-496.58691675381124,23.200000762939453
-495.40210037224642,29.200000762939453
-494.21751279435375,30.399999618530273
-493.03315397410915,24.200000762939453
-491.84902386549584,26
-490.665122422517,27.399999618530273
-489.48144959917408,28.200000762939453
-488.29800534949027,33.200000762939453
-487.11478962749243,28.600000381469727
-485.93180238722562,23.399999618530273
-484.74904358273852,30.600000381469727
-483.5665131681053,32.599998474121094
-482.38421109738738,24.200000762939453
-481.2021373246771,29.399999618530273
-480.0202918040759,40.400001525878906
-478.83867448969067,38.200000762939453
-477.65728533564106,39.200000762939453
-476.47612429605579,37.400001525878906
-475.2951913250854,39
-474.11448637687681,38.799999237060547
-472.93400940559695,33.200000762939453
-471.75376036542184,27.200000762939453
-470.57373921054023,27.799999237060547
-469.39394589515177,25.600000381469727
-468.21438037346343,27.399999618530273
-467.03504259970032,29.200000762939453
-465.8559325280894,29
-464.67705011287944,29.399999618530273
-463.49839530831923,28.600000381469727
-462.31996806867937,21.399999618530273
-461.14176834823775,27.399999618530273
-459.96379610127588,17
-458.78605128210074,28
-457.60853384501752,21.799999237060547
-456.43124374435138,30.399999618530273
-455.25418093443295,30.600000381469727
-454.07734536960925,19.399999618530273
-452.90073700422909,26
-451.7243557926613,25.600000381469727
-450.54820168928381,25.200000762939453
-449.37227464848911,22.200000762939453
-448.19657462467148,26.799999237060547
-447.02110157224524,21.799999237060547
-445.84585544562833,26.799999237060547
-444.67083619925324,26
-443.49604378757067,21.600000381469727
-442.32147816503129,32.599998474121094
-441.14713928610036,34.599998474121094
-439.97302710525764,22
-438.79914157698659,24
-437.62548265579426,27
-436.45205029618774,31.399999618530273
-435.27884445268865,27.799999237060547
-434.10586507982771,26
-432.93311213215566,33
-431.76058556421776,23.200000762939453
-430.58828533058477,23
-429.41621138583832,21.200000762939453
-428.24436368456008,30.200000762939453
-427.07274218135353,35.799999237060547
-425.90134683082943,17.200000762939453
-424.73017758760216,23.200000762939453
-423.55923440631159,24.600000381469727
-422.38851724159576,26.200000762939453
-421.21802604811455,24.600000381469727
-420.04776078052782,27.200000762939453
-418.87772139351546,27
-417.70790784176643,28.799999237060547
-416.53832007998062,28.200000762939453
-415.36895806286157,27.600000381469727
-414.19982174513279,31.799999237060547
-413.03091108152512,33.400001525878906
-411.86222602678754,17.799999237060547
-410.69376653566542,22.799999237060547
-409.52553256292776,23.200000762939453
-408.35752406334905,25.799999237060547
-407.18974099171828,23.600000381469727
-406.02218330282813,33
-404.85485095149124,20.799999237060547
-403.68774389253122,23.200000762939453
-402.5208620807698,22.799999237060547
-401.35420547105241,24.200000762939453
-400.18777401823172,25
-399.02156767717497,23.600000381469727
-397.85558640275485,22.200000762939453
-396.68983014985315,26.799999237060547
-395.52429887336984,24.399999618530273
-394.35899252820855,26.799999237060547
-393.1939110692947,21.799999237060547
-392.02905445155375,26.399999618530273
-390.8644226299275,22.200000762939453
-389.70001555936324,31.200000762939453
-388.53583319482641,19.799999237060547
-387.37187549128976,17.600000381469727
-386.20814240373875,24.399999618530273
-385.04463388716613,19.799999237060547
-383.8813498965792,23.200000762939453
-382.71829038699252,22.399999618530273
-381.55545531343887,27.799999237060547
-380.392844630951,24
-379.23045829458351,26.200000762939453
-378.06829625939463,26.600000381469727
-376.90635848045895,22.600000381469727
-375.74464491285289,23.200000762939453
-374.58315551167289,18.200000762939453
-373.42189023202263,18.600000381469727
-372.26084902901857,24.600000381469727
-371.10003185778623,25.200000762939453
-369.93943867346024,24.799999237060547
-368.77906943119342,22.799999237060547
-367.61892408613858,27
-366.45900259346672,23
-365.29930490835977,25.799999237060547
-364.13983098601057,25.799999237060547
-362.98058078161557,21.600000381469727
-361.82155425039127,27.200000762939453
-360.66275134756324,27.799999237060547
-359.5041720283607,24
-358.34581624803286,23.200000762939453
-357.18768396183805,24.200000762939453
-356.02977512504185,30.399999618530273
-354.87208969291896,20.200000762939453
-353.71462762076044,31
-352.55738886386462,27.399999618530273
-351.400373377548,22.799999237060547
-350.24358111712354,30.200000762939453
-349.08701203792953,24.600000381469727
-347.93066609530615,25.200000762939453
-346.77454324460632,28.200000762939453
-345.61864344119567,27.799999237060547
-344.46296664044894,28.799999237060547
-343.30751279775541,27.799999237060547
-342.15228186851164,35.200000762939453
-340.99727380812146,32.599998474121094
-339.84248857200873,35.200000762939453
-338.68792611559365,33.400001525878906
-337.53358639432554,44.599998474121094
-336.37946936365006,53
-335.2255749790329,50.200000762939453
-334.07190319594883,74
-332.918453969869,83.199996948242188
-331.76522725630093,94.800003051757813
-330.61222301074304,105.80000305175781
-329.45944118871012,121.19999694824219
-328.30688174573515,102.59999847412109
-327.15454463734568,89.5999984741211
-326.00242981909287,86.5999984741211
-324.85053724653517,76.199996948242188
-323.69886687524559,69.199996948242188
-322.54741866080076,60.599998474121094
-321.39619255879552,45.599998474121094
-320.24518852482652,50
-319.09440651450677,46
-317.9438464834584,40.200000762939453
-316.79350838731807,43.400001525878906
-315.64339218173154,32.400001525878906
-314.49349782234822,33.799999237060547
-313.34382526483751,38.400001525878906
-312.19437446487791,25.600000381469727
-311.04514537814794,47
-309.89613796035519,33.200000762939453
-308.74735216720546,30.200000762939453
-307.59878795441546,34.400001525878906
-306.45044527772006,30.799999237060547
-305.30232409285418,29.399999618530273
-304.1544243555727,35.799999237060547
-303.00674602163963,26.399999618530273
-301.85928904682078,29.799999237060547
-300.71205338690925,21.600000381469727
-299.56503899768541,36.799999237060547
-298.41824583496964,34.200000762939453
-297.27167385456596,39
-296.12532301230749,29.399999618530273
-294.97919326402553,33.599998474121094
-293.83328456556956,38
-292.6875968728,33
-291.54213014158267,37.599998474121094
-290.39688432779803,29.200000762939453
-289.25185938733557,33.799999237060547
-288.10705527609389,36.599998474121094
-286.96247194998614,39.400001525878906
-285.81810936493457,39.799999237060547
-284.67396747687235,33.599998474121094
-283.53004624174173,44.200000762939453
-282.38634561549406,30
-281.24286555409708,46
-280.09960601352395,43
-278.95656694976424,40
-277.81374831880566,44.799999237060547
-276.67115007666143,46.599998474121094
-275.52877217934838,37.599998474121094
-274.38661458289062,48.400001525878906
-273.24467724332862,41.799999237060547
-272.10296011671562,44.599998474121094
-270.961463159103,52
-269.82018632656946,41.599998474121094
-268.67912957519366,46.799999237060547
-267.53829286106156,47.799999237060547
-266.39767614028096,47.599998474121094
-265.25727936895964,44.799999237060547
-264.11710250322722,54.599998474121094
-262.97714549921329,50.200000762939453
-261.8374083130584,42.599998474121094
-260.6978909009249,51.400001525878906
-259.55859321897515,52.599998474121094
-258.41951522338059,54
-257.28065687033632,53.799999237060547
-256.14201811603016,53.400001525878906
-255.00359891667358,47.599998474121094
-253.86539922848715,62.200000762939453
-252.7274190076987,55
-251.58965821054153,51.200000762939453
-250.45211679326894,63.799999237060547
-249.31479471214516,62.799999237060547
-248.17769192343076,67.4000015258789
-247.04080838342088,64.199996948242188
-245.90414404839248,60.799999237060547
-244.76769887465525,68.4000015258789
-243.63147281852252,68.199996948242188
-242.49546583631673,73
-241.35967788436938,70.199996948242188
-240.22410891902837,76.800003051757813
-239.08875889664705,81.199996948242188
-237.95362777358059,80.800003051757813
-236.81871550621872,82.4000015258789
-235.6840220509439,79.800003051757813
-234.54954736414584,81
-233.41529140224156,87.5999984741211
-232.28125412163718,88.199996948242188
-231.14743547876969,85.4000015258789
-230.0138354300725,93
-228.88045393199536,96.800003051757813
-227.74729094100257,109.59999847412109
-226.61434641355845,98.800003051757813
-225.48162030614367,98
-224.349112575248,110.40000152587891
-223.21682317737577,111.80000305175781
-222.08475206903313,106
-220.95289920674804,115.40000152587891
-219.82126454705212,112.19999694824219
-218.68984804648244,116.40000152587891
-217.5586496615997,117.80000305175781
-216.427669348961,118
-215.29690706514521,120
-214.16636276673125,127.59999847412109
-213.03603641032169,124.19999694824219
-211.90592795251541,131.39999389648438
-210.77603734992772,132.39999389648438
-209.64636455919026,129
-208.51690953693469,133.39999389648438
-207.38767223980722,126.40000152587891
-206.25865262447223,143
-205.12985064758868,133
-204.00126626584097,139.19999694824219
-202.87289943590986,144.39999389648438
-201.74475011450158,137.39999389648438
-200.61681825831874,147.80000305175781
-199.48910382408758,147.39999389648438
-198.36160676853797,146
-197.23432704840525,149.60000610351563
-196.10726462043749,157.19999694824219
-194.98041944140277,149.80000305175781
-193.85379146806918,154.19999694824219
-192.72738065721751,144.39999389648438
-191.6011869656395,153
-190.47521035013779,162.80000305175781
-189.34945076753138,141.39999389648438
-188.22390817463383,157.80000305175781
-187.09858252828053,152.19999694824219
-185.97347378531958,153.80000305175781
-184.84858190259911,154.80000305175781
-183.72390683699086,165
-182.59944854536116,164
-181.47520698460175,172.80000305175781
-180.35118211159897,168.60000610351563
-179.22737388326641,175.80000305175781
-178.1037822565213,179.19999694824219
-176.9804071882827,183.80000305175781
-175.85724863548785,195
-174.73430655509037,202.19999694824219
-173.61158090404206,219.19999694824219
-172.48907163931108,217.19999694824219
-171.36677871787106,238.60000610351563
-170.24470209671563,246.39999389648438
-169.12284173284024,269.60000610351563
-168.00119758325309,276.60000610351563
-166.8797696049769,287.39999389648438
-165.75855775503624,305.20001220703125
-164.6375619904702,321
-163.51678226832883,336.60000610351563
-162.39621854567667,362.20001220703125
-161.27587077957287,386.60000610351563
-160.15573892710927,389.39999389648438
-159.03582294536864,419.20001220703125
-157.91612279145556,437.20001220703125
-156.79663842247828,451.20001220703125
-155.67736979555957,426.79998779296875
-154.55831686783313,438.20001220703125
-153.43947959643447,434.39999389648438
-152.32085793852275,431
-151.20245185125532,425
-150.08426129180589,424
-148.96628621735545,432.39999389648438
-147.84852658509953,428.60000610351563
-146.73098235223915,451.60000610351563
-145.61365347598803,461.39999389648438
-144.49653991357081,471.60000610351563
-143.3796416222176,502.20001220703125
-142.26295855917488,513.20001220703125
-141.14649068169638,537.4000244140625
-140.03023794704677,558.79998779296875
-138.91420031250163,588.5999755859375
-137.79837773533836,626.79998779296875
-136.68277017286164,642
-135.56737758237068,675.5999755859375
-134.45219992117563,727.5999755859375
-133.33723714661573,773
-132.22248921601567,792.20001220703125
-131.10795608672197,854
-129.99363771609387,893
-128.87953406149063,940.20001220703125
-127.76564508029878,994
-126.65197072989395,1045
-125.53851096768085,1124
-124.4252657510624,1184.5999755859375
-123.31223503745423,1234
-122.19941878428472,1289.199951171875
-121.08681694899133,1319.800048828125
-119.97442948901517,1418
-118.8622563618228,1413.800048828125
-117.75029752487717,1459.199951171875
-116.63855293565393,1503.4000244140625
-115.52702255164331,1576.5999755859375
-114.41570633034462,1638
-113.30460422925898,1686.800048828125
-112.19371620590573,1742.5999755859375
-111.08304221782055,1785.4000244140625
-109.97258222253549,1883.5999755859375
-108.86233617759535,1976
-107.75230404056492,2049.199951171875
-106.64248576901082,2167.199951171875
-105.53288132051239,2252.800048828125
-104.42349065265807,2387.39990234375
-103.31431372304178,2485.800048828125
-102.20535048927377,2622.39990234375
-101.09660090898069,2771.800048828125
-99.988064939780088,2918.39990234375
-98.879742539320432,3043.199951171875
-97.771633665246554,3258
-96.6637382752142,3432.800048828125
-95.556056326899125,3695
-94.448587777975263,3912.39990234375
-93.34133258613474,4180.39990234375
-92.234290709076959,4429
-91.1274621045086,4672
-90.020846730150879,4779.60009765625
-88.914444543732316,4874.7998046875
-87.808255502995962,4867.2001953125
-86.7022795656867,4832.60009765625
-85.596516689563941,4793
-84.490966832401682,4694.2001953125
-83.385629951977535,4710.2001953125
-82.280506006080032,4765.7998046875
-81.175594952508618,4818.2001953125
-80.070896749077292,5031.60009765625
-78.966411353598232,5190.7998046875
-77.862138723905446,5359.60009765625
-76.7580788178384,5598.39990234375
-75.654231593249278,5876.60009765625
-74.550597007988472,6033.7998046875
-73.447175019935457,6317.39990234375
-72.3439655869679,6632.60009765625
-71.240968666974368,7059
-70.138184217854359,7573.39990234375
-69.035612197516457,8031.2001953125
-67.933252563881979,8152.60009765625
-66.831105274881338,8233.7998046875
-65.7291702884504,8236
-64.62744756254142,8067.60009765625
-63.525937055112081,8140.7998046875
-62.424638724134638,8178.7998046875
-61.323552527588618,8483
-60.222678423459,8751.2001953125
-59.122016369747143,9227.400390625
-58.02156632446713,9752.2001953125
-56.92132824563123,10211.599609375
-55.821302091271718,10405.2001953125
-54.721487819426329,10041.2001953125
-53.621885388145529,9688.400390625
-52.522494755494336,9107.400390625
-51.423315879526854,8729.7998046875
-50.324348718333567,8582.599609375
-49.225593230001323,8744.2001953125
-48.12704937262788,9380.7998046875
-47.028717104320094,10719
-45.930596383199372,12809.400390625
-44.832687167392578,14511.7998046875
-43.734989415037489,15950.7998046875
-42.637503084284617,16860.80078125
-41.540228133289929,17970.80078125
-40.443164520223945,20053.80078125
-39.346312203260823,23329.19921875
-38.249671140592909,27784.80078125
-37.153241290412552,31544.80078125
-36.057022610932108,34185.19921875
-34.961015060369391,35170.3984375
-33.865218596949489,35907.6015625
-32.769633178906588,35363.3984375
-31.6742587644967,33287.80078125
-30.579095311970377,29907.19921875
-29.484142779594549,26802
-28.389401125643417,24987
-27.29487030841301,23354.400390625
-26.200550286193902,22124.599609375
-25.106441017293037,21116.400390625
-24.012542460020995,20159
-22.918854572712007,19201.400390625
-21.82537731370212,18876.80078125
-20.7321106413292,18167.19921875
-19.639054513960218,17531.80078125
-18.546208889949412,16551.80078125
-17.453573727678304,15834.599609375
-16.361148985530235,15399.7998046875
-15.268934621899461,15228
-14.176930595191152,14845.7998046875
-13.085136863823209,14913.7998046875
-11.993553386213534,14744.2001953125
-10.902180120801859,14890
-9.8110170260297309,14634
-8.720064060353252,14433.7998046875
-7.62932118223398,14015.599609375
-6.5387883501425677,11935
-5.448465522567858,7586.60009765625
-4.3583526579986938,3078
-3.2684497149384697,536.79998779296875
-2.1787566519033135,293.79998779296875
-1.0892734274111717,278.39999389648438
0,802.79998779296875
1.0890636717958841,3730.60009765625
2.1779176294185163,8106.2001953125
3.266561914309932,12167.400390625
4.354996567899434,13797.2001953125
5.443221631601773,14247.599609375
6.5312371468298807,14838.599609375
7.6190431549803179,14871.2001953125
8.7066396974460076,15062.400390625
9.7940268156035017,15274.7998046875
10.881204550825714,15276.7998046875
11.968172944472826,15659.400390625
13.054932037890467,15908.599609375
14.141481872427903,16557.400390625
15.227822489416212,17184.599609375
16.313953930162825,18226.599609375
17.399876235997,18967.599609375
18.485589448209794,19794.599609375
19.571093608095907,20426.400390625
20.656388756942761,21329.19921875
21.74147493601231,22296.19921875
22.826352186579243,23486.400390625
23.911020549890964,24856.400390625
24.995480067191238,26609.400390625
26.079730779716556,28790.400390625
27.163772728685217,31888.599609375
28.247605955324616,35629.19921875
29.331230500825768,38368.19921875
30.414646406390602,39008
31.49785371319922,38746.3984375
32.58085246243354,37447.6015625
33.663642695257295,35691.80078125
34.746224452830575,31797.80078125
35.828597776289826,26895.80078125
36.910762706780588,22973.400390625
37.992719285430212,20548.80078125
39.074467553356953,19025.400390625
40.156007551660878,18250.599609375
41.237339321447507,16988
42.318462903804175,15071.599609375
43.39937833980548,12823.400390625
44.48008567053148,10957.2001953125
45.560584937029489,10072.400390625
46.6408761803541,9804
47.720959441552623,9841.7998046875
48.80083476164873,10294.400390625
49.880502181658812,10849.400390625
50.9599617426029,11519
52.039213485481014,11944.400390625
53.118257451287718,12010
54.197093680997568,11696.2001953125
55.275722215592396,11065.7998046875
56.354143096026746,10502
57.432356363258805,10170.2001953125
58.510362058235842,9978.7998046875
59.588160221886938,9704.2001953125
60.665750895142992,9579
61.743134118913076,9654.400390625
62.820309934106263,9779.599609375
63.89727838161707,9896.599609375
64.974039502334563,9879.400390625
66.050593337131431,9587
67.12693992687673,8958.599609375
68.203079312430418,8405.400390625
69.2790115346379,8073.60009765625
70.354736634337314,7645.39990234375
71.43025465235587,7314
72.505565629522607,7110.39990234375
73.580669606635638,6936.60009765625
74.655566624502171,6700
75.730256723907587,6478.7998046875
76.804739945639085,6267
77.879016330462036,6115
78.953085919145451,6036
80.026948752434691,5897.60009765625
81.10060487107512,6034.7998046875
82.174054315803,6057
83.247297127336424,6223.60009765625
84.320333346397092,6266.60009765625
85.39316301368126,6294.7998046875
86.465786169887,6209.7998046875
87.538202855701456,6083
88.610413111804519,5829
89.682416978852416,5563.60009765625
90.754214497510475,5276.7998046875
91.825805708424014,4898.60009765625
92.897190652229256,4644.2001953125
93.968369369558786,4359.2001953125
95.039341901027,4134.39990234375
96.110108287242838,3917.60009765625
97.180668568809779,3694.800048828125
98.251022786316753,3549
99.321170980345414,3372.60009765625
100.39111319146468,3282.60009765625
101.46084946023984,3092
102.53037982722162,2970.60009765625
103.59970433295166,2822.60009765625
104.66882301796431,2706.60009765625
105.73773592278485,2647.39990234375
106.8064430879258,2512.800048828125
107.87494455389424,2434
108.94324036118269,2363.199951171875
110.01133055028004,2284.800048828125
111.07921516166243,2229.800048828125
112.1468942357933,2137.199951171875
113.21436781313787,2097
114.28163593413956,2034.199951171875
115.3486986392345,1979.5999755859375
116.41555596884973,1935.800048828125
117.48220796341775,1901.199951171875
118.54865466334195,1823.5999755859375
119.61489610901845,1763.199951171875
120.68093234084154,1682.199951171875
121.74676339919642,1639.5999755859375
122.81238932445376,1528.5999755859375
123.87781015697874,1443
124.94302593711836,1369.800048828125
126.00803670522509,1287
127.07284250162593,1234
128.13744336665695,1169.4000244140625
129.20183934062334,1136.5999755859375
130.26603046383752,1063.4000244140625
131.33001677659377,1024.199951171875
132.3937983191845,981.79998779296875
133.4573751318876,929.20001220703125
134.52074725496641,897.5999755859375
135.58391472868425,860
136.6468775932899,818.79998779296875
137.70963588902487,802.5999755859375
138.77218965612155,782
139.83453893480146,744.4000244140625
140.89668376527698,716.79998779296875
141.95862418775323,699.4000244140625
143.02036024241897,679
144.0818919694666,673.4000244140625
145.14321940906302,660.4000244140625
146.20434260137881,656.4000244140625
147.26526158656816,648.79998779296875
148.32597640478161,649.20001220703125
149.38648709615154,657.79998779296875
150.4467937008103,666.20001220703125
151.50689625887571,665.5999755859375
152.5667948104583,677.5999755859375
153.62648939565406,686.79998779296875
154.68598005455897,666.20001220703125
155.74526682725445,639.4000244140625
156.8043497538074,618.79998779296875
157.86322887428469,577.20001220703125
158.9219042287441,557.4000244140625
159.98037585721977,508.20001220703125
161.03864379975494,500.60000610351563
162.096708096371,483
163.15456878708392,456.39999389648438
164.21222591190417,440.39999389648438
165.2696795108277,423
166.32692962384135,397.20001220703125
167.38397629092287,379.79998779296875
168.4408195520482,348.20001220703125
169.4974594471696,342.60000610351563
170.55389601624302,323.39999389648438
171.61012929921162,313.39999389648438
172.66615933600406,297.20001220703125
173.7219861665435,287.20001220703125
174.7776098307495,279.60000610351563
175.83303036851612,279.20001220703125
176.88824781974836,263.39999389648438
177.94326222432755,258.79998779296875
178.99807362213323,255.19999694824219
180.05268205302673,253.60000610351563
181.10708755687847,248.60000610351563
182.16129017352432,231.80000305175781
183.21528994280743,226.39999389648438
184.26908690456366,236.60000610351563
185.32268109860706,245
186.37607256475167,240.60000610351563
187.42926134280606,238
188.482247472557,234.19999694824219
189.53503099378759,236.80000305175781
190.58761194627914,231.80000305175781
191.63999036979294,226.19999694824219
192.692166304083,235.39999389648438
193.7441397888997,235
194.79591086397886,228.60000610351563
195.8474795690563,224
196.89884594384057,221.80000305175781
197.95001002804929,217.60000610351563
199.00097186138009,215
200.05173148352878,230.19999694824219
201.10228893417116,218
202.15264425298847,206.80000305175781
203.2027974796365,215.60000610351563
204.25274865377651,206.80000305175781
205.30249781504972,221.80000305175781
206.35204500309737,199.39999389648438
207.4013902575407,204
208.45053361800274,189.39999389648438
209.49947512409562,198.60000610351563
210.54821481540785,193.39999389648438
211.59675273154062,192.39999389648438
212.64508891206788,197.19999694824219
213.69322339656719,186
214.74115622459976,193.39999389648438
215.78888743571224,185.39999389648438
216.83641706946219,192.19999694824219
217.88374516537988,186.39999389648438
218.93087176298468,183
219.97779690180323,187.80000305175781
221.02452062133852,179
222.0710429610881,182.19999694824219
223.11736396054403,169.39999389648438
224.16348365918566,158.39999389648438
225.2094020964887,163
226.25511931190886,153.19999694824219
227.3006353449,148.39999389648438
228.34595023491056,137.60000610351563
229.39106402137622,144.80000305175781
230.43597674371449,129.60000610351563
231.48068844134468,128.80000305175781
232.52519915367702,127.19999694824219
233.569508920109,128
234.61361778002538,105
235.65752577281455,122.19999694824219
236.70123293784127,116
237.74473931446664,104
238.78804494204451,120.19999694824219
239.83114985991779,103.19999694824219
240.87405410742394,111
241.91675772388407,101.40000152587891
242.95926074861745,101.40000152587891
244.00156322093062,100.59999847412109
245.04366518011921,96.5999984741211
246.08556666547338,99.4000015258789
247.12726771627604,98.800003051757813
248.16876837179188,74.5999984741211
249.21006867128381,91
250.25116865401105,85.199996948242188
251.29206835920559,85.800003051757813
252.33276782611392,83
253.37326709395347,78
254.41356620194165,81.4000015258789
255.45366518928495,76.5999984741211
256.49356409518441,77
257.53326295883016,76.4000015258789
258.57276181939596,83.4000015258789
259.61206071605739,65.199996948242188
260.65115968797545,76.800003051757813
261.69005877429845,73.199996948242188
262.72875801417831,80.5999984741211
263.76725744674513,72.800003051757813
264.80555711111992,75.199996948242188
265.84365704643096,68
266.88155729177379,68.199996948242188
267.91925788625122,61.400001525878906
268.95675886895515,56.799999237060547
269.99406027896839,67.5999984741211
271.03116215535192,65.800003051757813
272.06806453717945,56.200000762939453
273.10476746349923,54.200000762939453
274.14127097334858,59.200000762939453
275.17757510577758,61.200000762939453
276.21367989980354,57
277.24958539444378,52
278.28529162870836,55.400001525878906
279.32079864159641,55.799999237060547
280.35610647209614,43.799999237060547
281.39121515919214,54.400001525878906
282.42612474185262,50
283.46083525904578,53.799999237060547
284.49534674972347,42.200000762939453
285.52965925283388,48
286.56377280730703,48.599998474121094
287.59768745207475,38.799999237060547
288.63140322605432,48
289.66492016815391,48.200000762939453
290.6982383172799,42.799999237060547
291.73135771231318,48.799999237060547
292.76427839214739,43
293.79700039564887,38.599998474121094
294.82952376168032,45.200000762939453
295.86184852910264,35
296.89397473676581,43.599998474121094
297.92590242349979,42.400001525878906
298.95763162813637,41.400001525878906
299.9891623894946,39.599998474121094
301.02049474638625,40.400001525878906
302.05162873761219,35.599998474121094
303.082564401966,46.799999237060547
304.1133017782322,38.400001525878906
305.14384090518251,39.200000762939453
306.1741818215869,44.799999237060547
307.20432456620438,50.599998474121094
308.23426917777579,36.200000762939453
309.26401569504924,44.400001525878906
310.29356415674738,40.200000762939453
311.32291460160013,53
312.35206706831377,51
313.38102159559276,58
314.40977822213063,63.200000762939453
315.43833698661547,70.199996948242188
316.46669792772627,79.5999984741211
317.49486108412748,97.4000015258789
318.52282649447989,116.40000152587891
319.55059419743338,131.19999694824219
320.5781642316324,152
321.60553663570317,178.39999389648438
322.63271144827559,206.19999694824219
323.65968870795768,220.80000305175781
324.68646845335934,243.80000305175781
325.71305072307769,232.60000610351563
326.73943555570077,233.60000610351563
327.76562298980934,195.80000305175781
328.79161306396782,158.39999389648438
329.81740581674421,122
330.84300128668838,88
331.86839951234651,74.4000015258789
332.89360053224482,63.200000762939453
333.9186043849204,55.200000762939453
334.9434111088849,41.200000762939453
335.96802074264451,32.799999237060547
336.9924333247036,35.400001525878906
338.016648893552,30
339.04066748766672,20.399999618530273
340.06448914552857,24
341.08811390559458,17.200000762939453
342.11154180632184,22
343.13477288616014,23.600000381469727
344.15780718354108,15.600000381469727
345.1806447368981,10.199999809265137
346.20328558465189,13.199999809265137
347.22572976520678,18.799999237060547
348.24797731697436,10
349.2700282783444,17.399999618530273
350.29188268769758,23
351.3135405834164,12.399999618530273
352.3350020038597,16.600000381469727
353.35626698739179,21.399999618530273
354.37733557236061,5.5999999046325684
355.39820779711044,19.200000762939453
356.41888369996741,10.600000381469727
357.43936331925579,13.800000190734863
358.4596466932926,16.799999237060547
359.47973386038029,10
360.4996248588177,13.399999618530273
361.51931972688908,15.399999618530273
362.53881850287689,16.399999618530273
363.55812122505267,11.199999809265137
364.57722793167341,15.199999809265137
365.59613866099608,12
366.61485345126675,2.2000000476837158
367.63337234071332,15.600000381469727
368.65169536756548,8.3999996185302734
369.66982257004383,5.4000000953674316
370.68775398635444,12.399999618530273
371.70548965469789,10.800000190734863
372.7230296132675,11.600000381469727
373.74037390024205,4.8000001907348633
374.75752255379666,14.199999809265137
375.7744756120992,10.800000190734863
376.79123311330659,15
377.80779509556305,11.199999809265137
378.82416159700733,13.199999809265137
379.84033265577273,12.399999618530273
380.856308309978,4.1999998092651367
381.87208859774,14.199999809265137
382.88767355716118,4.8000001907348633
383.90306322633296,9.8000001907348633
384.918257643345,9.6000003814697266
385.933256846276,13.600000381469727
386.94806087319375,7.8000001907348633
387.96266976215884,14.800000190734863
388.97708355122268,9.6000003814697266
389.99130227842943,13.399999618530273
391.005325981816,15
392.01915469940104,13.800000190734863
393.03278846921057,7
394.04622732924145,0
395.05947131750145,18.799999237060547
396.072520471982,8.3999996185302734
397.08537483066175,15
398.09803443151395,7.8000001907348633
399.11049931250454,6
400.12276951158856,11.199999809265137
401.13484506671739,6.4000000953674316
402.14672601582424,7
403.15841239684596,9
404.16990424769574,10
405.18120160629041,19.799999237060547
406.19230451053772,14.399999618530273
407.20321299832722,13.800000190734863
408.21392710754844,15.600000381469727
409.22444687608004,7.8000001907348633
410.2347723417879,7.4000000953674316
411.24490354253794,7.4000000953674316
412.25484051617786,8.6000003814697266
413.26458330055357,15.800000190734863
414.27413193350003,7.5999999046325684
415.28348645284314,6.4000000953674316
416.29264689639967,0.800000011920929
417.30161330197734,7.1999998092651367
418.310385707382,12.800000190734863
419.31896415039773,9.3999996185302734
420.327348668814,8.1999998092651367
421.33553930040034,5.1999998092651367
422.34353608292622,6.8000001907348633
423.35133905414659,11.800000190734863
424.35894825181094,5.8000001907348633
425.366363713656,10.600000381469727
426.37358547742224,11.199999809265137
427.38061358082268,3.7999999523162842
428.38744806157592,8
429.39408895738779,10.600000381469727
430.40053630595321,8.3999996185302734
431.40679014495618,6.8000001907348633
432.41285051209161,16.799999237060547
433.41871744501259,6.8000001907348633
434.42439098139221,3.2000000476837158
435.42987115888172,12
436.43515801512694,-2.4000000953674316
437.4402515877664,2.7999999523162842
438.44515191442224,9
439.44985903272209,6.1999998092651367
440.45437298026809,5.1999998092651367
441.45869379467149,8.1999998092651367
442.4628215135217,8.8000001907348633
443.46675617440451,3.2000000476837158
444.47049781489659,7.8000001907348633
445.47404647256735,9
446.47740218497347,7
447.480564989668,11
448.483534924193,7.8000001907348633
449.48631202608703,11
450.48889633286853,10
451.49128788205962,0
452.49348671116604,3.2000000476837158
453.49549285768262,6
454.49730635911328,8.8000001907348633
455.49892725292921,5
456.50035557661067,5.1999998092651367
457.50159136762159,4.5999999046325684
458.50263466341676,9
459.503485501451,11
460.50414391915729,4.5999999046325684
461.50460995397043,8.3999996185302734
462.5048836433125,17.600000381469727
463.50496502460373,14.600000381469727
464.50485413524257,18.600000381469727
465.50455101262742,12.199999809265137
466.50405569415489,19.399999618530273
467.50336821719429,24.799999237060547
468.50248861912587,36.400001525878906
469.50141693731166,38.400001525878906
470.50015320910279,48.599998474121094
471.49869747185039,52.400001525878906
472.49704976288922,49
473.49521011955221,40.400001525878906
474.49317857915776,32.400001525878906
475.49095517901515,23
476.48853995643731,28.200000762939453
477.48593294871353,16
478.48313419313126,12
479.48014372697253,10
480.47696158750477,11.399999618530273
481.47358781198818,10.399999618530273
482.47002243768111,5
483.46626550182373,7.5999999046325684
484.46231704165621,6.5999999046325684
485.45817709440053,9.1999998092651367
486.45384569728049,5.8000001907348633
487.44932288750715,7
488.44460870228249,2.2000000476837158
489.43970317880303,7
490.4346063542489,1.2000000476837158
491.42931826580025,3.5999999046325684
492.4238389506263,6.5999999046325684
493.41816844588539,-0.40000000596046448
494.41230678873217,1.7999999523162842
495.40625401630859,7
496.40001016574752,-3
497.39357527418179,4.8000001907348633
498.3869493787206,7.1999998092651367
499.3801325164859,1
500.37312472456688,3.5999999046325684
501.36592604006182,7
502.35853650005447,7.5999999046325684
503.35095614162128,1.6000000238418579
504.34318500183144,-1.3999999761581421
505.33522311774323,6
506.32707052640581,2
507.3187272648629,1.3999999761581421
508.31019337014914,1.2000000476837158
509.30146887928822,7.4000000953674316
510.29255382930023,7
511.28344825719068,3.4000000953674316
512.27415219996328,4.5999999046325684
513.26466569460717,7
514.25498877810969,7
515.24512148744543,4.1999998092651367
516.23506385957626,-0.800000011920929
517.22481593147131,0
518.214377740067,8.3999996185302734
519.20374932231425,5.5999999046325684
520.19293071514585,5
521.18192195548909,-1.2000000476837158
522.17072308025308,4.4000000953674316
523.15933412635422,-0.800000011920929
524.14775513068525,4.5999999046325684
525.13598613014619,4.1999998092651367
526.12402716160977,9.1999998092651367
527.11187826196146,5.8000001907348633
528.09953946806127,7.1999998092651367
529.08701081677282,6.4000000953674316
530.07429234493793,12.199999809265137
531.06138408940751,13
532.048286087007,5.5999999046325684
533.03499837456729,7
534.0215209889011,5
535.00785396682113,2.2000000476837158
535.99399734512008,0.800000011920929
536.97995116059792,6
537.965715450031,0.60000002384185791
538.95129025019924,3
539.93667559786809,3.7999999523162842
540.921871529792,5.5999999046325684
541.90687808272924,4.8000001907348633
542.89169529341052,5.8000001907348633
543.87632319857767,7
544.86076183495788,11
545.84501123925838,5.1999998092651367
546.82907144819546,0.60000002384185791
547.8129424984636,-3
548.7966244267609,-1
549.78011726976547,5.1999998092651367
550.76342106415723,6.8000001907348633
551.74653584660155,6.1999998092651367
552.7294616537547,2
553.71219852227114,7.5999999046325684
554.69474648879077,-3.7999999523162842
555.677105589948,3.5999999046325684
556.65927586237194,2
557.64125734267327,7.4000000953674316
558.62305006746465,-2.5999999046325684
559.604654073346,3.2000000476837158
560.58606939691163,1.2000000476837158
561.56729607475063,6
562.54833414342647,7.5999999046325684
563.5291836395154,10.800000190734863
564.50984459957726,3.2000000476837158
565.490317060161,11.199999809265137
566.4706010578102,13.800000190734863
567.450696629061,16
568.43060381044052,24.200000762939453
569.41032263846137,31.600000381469727
570.38985314963975,49.200000762939453
571.36919538047732,42.200000762939453
572.348349367463,35
573.32731514708939,22.200000762939453
574.30609275582538,10.800000190734863
575.28468223014534,12.399999618530273
576.26308360651274,3.5999999046325684
577.24129692136921,12
578.219322211171,7
579.197159512345,5.5999999046325684
580.17480886132762,10
581.15227029453308,9
582.12954384837394,6.8000001907348633
583.10662955925181,1.2000000476837158
584.08352746356286,5.8000001907348633
585.06023759769778,0
586.03675999802908,5.5999999046325684
587.01309470092929,6.1999998092651367
587.98924174276181,4
588.965201159881,3
589.940972988632,0.60000002384185791
590.916557265351,4.1999998092651367
591.89195402637051,-4.5999999046325684
592.86716330800846,-0.60000002384185791
593.84218514657914,-1.6000000238418579
594.81701957839141,0.60000002384185791
595.79166663973774,10.600000381469727
596.76612636690516,0.40000000596046448
597.74039879617885,-0.40000000596046448
598.71448396382948,4.4000000953674316
599.68838190611859,1.7999999523162842
600.66209265930229,1.3999999761581421
601.63561625963666,1.3999999761581421
602.60895274334871,5.8000001907348633
603.58210214668,7.4000000953674316
604.55506450584653,-0.20000000298023224
605.52783985706992,8.8000001907348633
606.50042823655167,-3
607.472829680497,4.8000001907348633
608.44504422508908,0.800000011920929
609.41707190651687,4.5999999046325684
610.38891276095092,0.40000000596046448
611.36056682456,3.2000000476837158
612.332034133502,4.4000000953674316
613.3033147239239,9.3999996185302734
614.2744086319708,5.5999999046325684
615.24531589377693,9.3999996185302734
616.216036545462,11
617.18657062315287,4.4000000953674316
618.15691816295475,13.800000190734863
619.12707920096727,7.1999998092651367
620.09705377328282,-5.5999999046325684
621.06684191599379,-0.800000011920929
622.03644366517074,3.4000000953674316
623.0058590568824,4
623.97508812719207,0.800000011920929
624.94413091215029,1.2000000476837158
625.912987447804,-1.2000000476837158
626.88165777019094,2.2000000476837158
627.85014191533446,0.20000000298023224
628.81843991925962,2.4000000953674316
629.78655181797694,-2.2000000476837158
630.75447764748969,4.5999999046325684
631.72221744379385,-3.4000000953674316
632.68977124288176,4
633.65713908072576,6
634.62432099330545,0.60000002384185791
635.59131701657861,9
636.55812718650486,2.4000000953674316
637.52475153902742,1.2000000476837158
638.49119011009134,-5
639.45744293562529,5.1999998092651367
640.42351005155251,7.1999998092651367
641.38939149379257,-2.5999999046325684
642.355087298245,4.8000001907348633
643.32059750081135,2.4000000953674316
644.28592213738557,1
645.25106124385456,2.4000000953674316
646.216014856087,2.5999999046325684
647.18078300994785,-1
648.1453657413058,5.1999998092651367
649.10976308600038,-1.7999999523162842
650.07397507988208,5.5999999046325684
651.03800175878678,4
652.00184315853767,0.40000000596046448
652.96549931495247,-0.60000002384185791
653.92897026384526,-4
654.89225604101739,2.4000000953674316
655.85535668226476,4
656.81827222337415,-1.3999999761581421
657.78100270012328,3.4000000953674316
658.74354814828257,-1
659.70590860361335,-0.20000000298023224
660.66808410187514,-2.5999999046325684
661.63007467881289,3.5999999046325684
662.59188037016247,1.7999999523162842
663.55350121165611,2.5999999046325684
664.514937239017,1.3999999761581421
665.47618848796083,4
666.4372549941927,5.4000000953674316
667.39813679341023,0.20000000298023224
668.35883392130745,0.20000000298023224
669.31934641356565,2.2000000476837158
670.27967430585886,4.5999999046325684
671.23981763385382,6.8000001907348633
672.19977643321,5.8000001907348633
673.15955073957775,-7
674.119140588602,-1
675.07854601591134,-1
676.03776705714154,-9.1999998092651367
676.99680374790478,1.7999999523162842
677.95565612381506,-2
678.91432422047183,-2.4000000953674316
679.87280807347634,-0.800000011920929
680.83110771841166,5
681.78922319085541,-2
682.74715452638156,2.2000000476837158
683.70490176055318,1
684.66246492892424,1
