-777.74687133807856,-3.4000000953674316
-776.50770429765,7.5999999046325684
-775.26877705141487,1.6000000238418579
-774.03008955063888,0
-772.79164174658763,-1.3999999761581421
-771.55343359055223,0.20000000298023224
-770.31546503381287,2.5999999046325684
-769.07773602767884,5.4000000953674316
-767.8402465234667,5.4000000953674316
-766.60299647250758,3.4000000953674316
-765.36598582614351,5.1999998092651367
-764.12921453572744,-1.3999999761581421
-762.89268255262323,-9.3999996185302734
-761.65638982821292,3.5999999046325684
-760.42033631388222,-5.4000000953674316
-759.184521961035,-0.60000002384185791
-757.948946721086,-2.2000000476837158
-756.71361054546833,2.5999999046325684
-755.47851338560758,-6.5999999046325684
-754.24365519296589,5.4000000953674316
-753.009035918998,-3.2000000476837158
-751.77465551518071,6
-750.5405139330087,1.3999999761581421
-749.30661112396592,8.1999998092651367
-748.0729470395836,-2
-746.8395216313711,5.4000000953674316
-745.60633485086328,-2.2000000476837158
-744.3733866496168,7.4000000953674316
-743.14067697918108,3.5999999046325684
-741.90820579113461,-0.20000000298023224
-740.67597303705952,-1.7999999523162842
-739.44397866855252,-1
-738.21222263721756,1.2000000476837158
-736.98070489468046,6.8000001907348633
-735.749425392567,-0.20000000298023224
-734.51838408252479,-3.2000000476837158
-733.28758091621239,3.2000000476837158
-732.057015845292,-9.3999996185302734
-730.82668882144753,-3.7999999523162842
-729.59659979637036,2.7999999523162842
-728.366748721759,-0.20000000298023224
-727.13713554934475,-1.2000000476837158
-725.90776023084072,0
-724.67862271799277,5
-723.449722962554,1.3999999761581421
-722.22106091628848,2.2000000476837158
-720.99263653096386,3.5999999046325684
-719.76444975838785,-7.4000000953674316
-718.53650055034268,7.5999999046325684
-717.308788858647,-4.5999999046325684
-716.08131463512655,0.800000011920929
-714.85407783161827,-1.2000000476837158
-713.62707839996983,-4.4000000953674316
-712.40031629203258,-0.60000002384185791
-711.17379145969062,2.4000000953674316
-709.94750385482075,-0.800000011920929
-708.72145342932527,0.800000011920929
-707.49564013510644,6.1999998092651367
-706.27006392408839,-2.7999999523162842
-705.04472474819522,0
-703.81962255938379,2.4000000953674316
-702.59475730959639,-0.20000000298023224
-701.3701289508117,-5.5999999046325684
-700.14573743500478,8.3999996185302734
-698.9215827141652,3
-697.69766474030075,0.60000002384185791
-696.47398346541922,3.7999999523162842
-695.25053884156114,3
-694.02733082075611,-1.3999999761581421
-692.80435935505557,4.5999999046325684
-691.58162439652915,-2.5999999046325684
-690.35912589724649,3.5999999046325684
-689.13686380929175,5.5999999046325684
-687.91483808476733,2.4000000953674316
-686.69304867578649,-1
-685.47149553447343,3.7999999523162842
-684.25017861295237,-1.6000000238418579
-683.02909786337659,-0.60000002384185791
-681.80825323790668,2.4000000953674316
-680.5876446887105,3.7999999523162842
-679.3672721679668,-4.5999999046325684
-678.14713562787256,-1
-676.92723502063564,5.8000001907348633
-675.70757029846391,-2.2000000476837158
-674.48814141360162,-2.7999999523162842
-673.26894831827849,4.1999998092651367
-672.04999096475331,-4.1999998092651367
-670.83126930528488,-1.3999999761581421
-669.61278329215747,-1.6000000238418579
-668.39453287765537,0.60000002384185791
-667.176518014081,2.7999999523162842
-665.95873865374051,0
-664.7411947489727,5.8000001907348633
-663.5238862520946,-5.1999998092651367
-662.30681311546687,-0.60000002384185791
-661.0899752914429,-0.60000002384185791
-659.87337273240155,-1.3999999761581421
-658.6570053907144,0.800000011920929
-657.44087321878942,0.40000000596046448
-656.22497616902,2.5999999046325684
-655.009314193836,-1.2000000476837158
-653.79388724565979,0.60000002384185791
-652.57869527693947,-0.60000002384185791
-651.363738240123,1.3999999761581421
-650.14901608768014,-2.7999999523162842
-648.93452877208438,-7.4000000953674316
-647.720276245831,4.4000000953674316
-646.5062584614152,-4
-645.29247537135416,-4.1999998092651367
-644.078926928165,-4.4000000953674316
-642.86561308439377,2.2000000476837158
-641.65253379257956,-3.5999999046325684
-640.43968900529035,-5.1999998092651367
-639.22707867508689,-1.2000000476837158
-638.01470275456631,0.800000011920929
-636.80256119630758,-2.5999999046325684
-635.590653952926,1
-634.37898097704056,-0.40000000596046448
-633.16754222128111,2
-631.95633763828118,-5.1999998092651367
-630.745367180707,-0.20000000298023224
-629.534630801214,3.4000000953674316
-628.32412845248655,-1.7999999523162842
-627.11386008720547,-8.8000001907348633
-625.9038256580734,0.60000002384185791
-624.69402511780754,-2.2000000476837158
-623.48445841912508,-2
-622.27512551476138,-1.2000000476837158
-621.0660263574664,1
-619.85716089999733,1.2000000476837158
-618.64852909512592,0.800000011920929
-617.44013089563123,-0.20000000298023224
-616.2319662543141,-3.4000000953674316
-615.0240351239645,0
-613.81633745741237,-3.2000000476837158
-612.60887320749134,1
-611.40164232702409,-1.7999999523162842
-610.194644768877,-5.8000001907348633
-608.98788048590177,1.6000000238418579
-607.781349430983,-1.6000000238418579
-606.57505155700892,-7.8000001907348633
-605.36898681687126,1.3999999761581421
-604.1631551634764,0.60000002384185791
-602.95755654975983,-6
-601.75219092864245,-3.7999999523162842
-600.54705825307065,1.7999999523162842
-599.34215847600535,-0.40000000596046448
-598.13749155041478,-2
-596.93305742927441,-1
-595.72885606557793,-3
-594.52488741232992,2.2000000476837158
-593.32115142254224,-9
-592.117648049245,1.2000000476837158
-590.91437724546449,1.6000000238418579
-589.71133896426,0.60000002384185791
-588.50853315869062,-4.8000001907348633
-587.30595978182646,2.2000000476837158
-586.10361878675576,4.5999999046325684
-584.90151012657043,-2
-583.69963375437328,7.1999998092651367
-582.49798962329442,1.3999999761581421
-581.296577686453,-4.1999998092651367
-580.09539789699556,-3.4000000953674316
-578.894450208074,-1.6000000238418579
-577.69373457285474,-1.2000000476837158
-576.4932509445116,4.8000001907348633
-575.29299927623651,-5
-574.09297952122142,2.5999999046325684
-572.89319163268192,-5.8000001907348633
-571.69363556384451,-6.8000001907348633
-570.49431126793752,-6.4000000953674316
-569.29521869820383,-0.60000002384185791
-568.09635780790632,-1.7999999523162842
-566.89772855030969,1
-565.69933087869686,-4
-564.50116474635433,-4
-563.30323010658867,-2.7999999523162842
-562.1055269127155,-2.7999999523162842
-560.90805511805775,1
-559.710814675951,0.20000000298023224
-558.513805539751,-1.6000000238418579
-557.31702766280978,1.2000000476837158
-556.12048099851017,0.20000000298023224
-554.92416550022062,1.3999999761581421
-553.72808112134589,1.3999999761581421
-552.53222781529075,3.5999999046325684
-551.33660553547088,-5.8000001907348633
-550.14121423531651,6.5999999046325684
-548.94605386826515,-8.6000003814697266
-547.75112438777614,-4.5999999046325684
-546.55642574730518,-2.2000000476837158
-545.361957900328,-0.40000000596046448
-544.167720800333,-5.5999999046325684
-542.97371440082134,-0.20000000298023224
-541.77993865529243,-0.800000011920929
-540.58639351727652,-4.5999999046325684
-539.39307894030026,2.2000000476837158
-538.19999487790665,-3
-537.00714128365507,-7.5999999046325684
-535.81451811110674,0.20000000298023224
-534.622125313841,-6.1999998092651367
-533.42996284544643,-5.5999999046325684
-532.23803065952234,1.6000000238418579
-531.04632870968271,-2.5999999046325684
-529.85485694955059,-1
-528.66361533275631,-4.5999999046325684
-527.47260381295564,3.7999999523162842
-526.28182234379165,-1.2000000476837158
-525.09127087894194,2
-523.90094937208778,-2.5999999046325684
-522.71085777691223,-3
-521.52099604712748,-8.1999998092651367
-520.33136413644206,1.6000000238418579
-519.14196199858088,-4.5999999046325684
-517.95278958728341,1.2000000476837158
-516.76384685629819,-6
-515.57513375937924,-2.4000000953674316
-514.38665025030423,1.6000000238418579
-513.19839628285263,-9.1999998092651367
-512.01037181081665,-5.8000001907348633
-510.82257678800124,-1.6000000238418579
-509.63501116822226,-0.20000000298023224
-508.44767490530649,-4.5999999046325684
-507.26056795309523,-3.7999999523162842
-506.07369026543893,-4.5999999046325684
-504.88704179619526,-4.1999998092651367
-503.70062249923831,-2.7999999523162842
-502.51443232845486,3
-501.32847123773354,-4
-500.14273918098661,-3
-498.95723611213,2
-497.77196198509228,-0.60000002384185791
-496.58691675381124,-10.199999809265137
-495.40210037224642,1.2000000476837158
-494.21751279435375,-2.7999999523162842
-493.03315397410915,-6.5999999046325684
-491.84902386549584,-7.1999998092651367
-490.665122422517,-7.5999999046325684
-489.48144959917408,-5.8000001907348633
-488.29800534949027,-0.20000000298023224
-487.11478962749243,-3.4000000953674316
-485.93180238722562,-6.8000001907348633
-484.74904358273852,-1.7999999523162842
-483.5665131681053,-2.5999999046325684
-482.38421109738738,-7
-481.2021373246771,-7.4000000953674316
-480.0202918040759,2.2000000476837158
-478.83867448969067,3.5999999046325684
-477.65728533564106,1.3999999761581421
-476.47612429605579,-4.1999998092651367
-475.2951913250854,5
-474.11448637687681,-2.2000000476837158
-472.93400940559695,-5.1999998092651367
-471.75376036542184,-3.4000000953674316
-470.57373921054023,-4
-469.39394589515177,-2.2000000476837158
-468.21438037346343,-1.3999999761581421
-467.03504259970032,-5.4000000953674316
-465.8559325280894,-7
-464.67705011287944,3.7999999523162842
-463.49839530831923,-5.5999999046325684
-462.31996806867937,-6.8000001907348633
-461.14176834823775,-4.1999998092651367
-459.96379610127588,-13.600000381469727
-458.78605128210074,-4.4000000953674316
-457.60853384501752,-10.399999618530273
-456.43124374435138,-2.2000000476837158
-455.25418093443295,-7.8000001907348633
-454.07734536960925,-8.1999998092651367
-452.90073700422909,-3.4000000953674316
-451.7243557926613,-8.1999998092651367
-450.54820168928381,-6.8000001907348633
-449.37227464848911,-8
-448.19657462467148,-0.60000002384185791
-447.02110157224524,-9.3999996185302734
-445.84585544562833,-3.2000000476837158
-444.67083619925324,-9
-443.49604378757067,-5
-442.32147816503129,-5.8000001907348633
-441.14713928610036,2.7999999523162842
-439.97302710525764,-5
-438.79914157698659,-4.8000001907348633
-437.62548265579426,-6.8000001907348633
-436.45205029618774,-5.4000000953674316
-435.27884445268865,-5
-434.10586507982771,-5.1999998092651367
-432.93311213215566,-0.40000000596046448
-431.76058556421776,-3.4000000953674316
-430.58828533058477,-9.8000001907348633
-429.41621138583832,-12.399999618530273
-428.24436368456008,-3
-427.07274218135353,-3.2000000476837158
-425.90134683082943,-10
-424.73017758760216,-12
-423.55923440631159,-4.8000001907348633
-422.38851724159576,0.800000011920929
-421.21802604811455,-7.4000000953674316
-420.04776078052782,-4.8000001907348633
-418.87772139351546,-7.5999999046325684
-417.70790784176643,-3.7999999523162842
-416.53832007998062,-4.4000000953674316
-415.36895806286157,-2.2000000476837158
-414.19982174513279,-3.7999999523162842
-413.03091108152512,-4.1999998092651367
-411.86222602678754,-15.800000190734863
-410.69376653566542,-5
-409.52553256292776,-6.5999999046325684
-408.35752406334905,-5.8000001907348633
-407.18974099171828,-9
-406.02218330282813,-4
-404.85485095149124,-6.4000000953674316
-403.68774389253122,-9
-402.5208620807698,-5.1999998092651367
-401.35420547105241,-1.6000000238418579
-400.18777401823172,-11.399999618530273
-399.02156767717497,-1.7999999523162842
-397.85558640275485,-6.8000001907348633
-396.68983014985315,-5.1999998092651367
-395.52429887336984,-3.7999999523162842
-394.35899252820855,-4.4000000953674316
-393.1939110692947,-6.1999998092651367
-392.02905445155375,-6.1999998092651367
-390.8644226299275,-9.6000003814697266
-389.70001555936324,-6
-388.53583319482641,-11
-387.37187549128976,-9.1999998092651367
-386.20814240373875,-11.199999809265137
-385.04463388716613,-7.4000000953674316
-383.8813498965792,-3.4000000953674316
-382.71829038699252,-11
-381.55545531343887,-7.5999999046325684
-380.392844630951,-2.7999999523162842
-379.23045829458351,-5.5999999046325684
-378.06829625939463,-4.8000001907348633
-376.90635848045895,-13.800000190734863
-375.74464491285289,-7.8000001907348633
-374.58315551167289,-9
-373.42189023202263,-16.799999237060547
-372.26084902901857,-11.600000381469727
-371.10003185778623,-1.3999999761581421
-369.93943867346024,-10.399999618530273
-368.77906943119342,-7.5999999046325684
-367.61892408613858,-6.1999998092651367
-366.45900259346672,-7.8000001907348633
-365.29930490835977,-2
-364.13983098601057,-11.399999618530273
-362.98058078161557,-8.8000001907348633
-361.82155425039127,-3.4000000953674316
-360.66275134756324,-7.8000001907348633
-359.5041720283607,-15.199999809265137
-358.34581624803286,-5.8000001907348633
-357.18768396183805,-11.199999809265137
-356.02977512504185,0.60000002384185791
-354.87208969291896,-9.6000003814697266
-353.71462762076044,-2
-352.55738886386462,-1.3999999761581421
-351.400373377548,-13.399999618530273
-350.24358111712354,-2.7999999523162842
-349.08701203792953,-4.4000000953674316
-347.93066609530615,-10.199999809265137
-346.77454324460632,-5.1999998092651367
-345.61864344119567,-4.5999999046325684
-344.46296664044894,-4
-343.30751279775541,-5.5999999046325684
-342.15228186851164,-10.800000190734863
-340.99727380812146,-0.20000000298023224
-339.84248857200873,-3.4000000953674316
-338.68792611559365,-10
-337.53358639432554,-4.4000000953674316
-336.37946936365006,4
-335.2255749790329,5.5999999046325684
-334.07190319594883,5
-332.918453969869,8.6000003814697266
-331.76522725630093,15
-330.61222301074304,26
-329.45944118871012,29.399999618530273
-328.30688174573515,16.399999618530273
-327.15454463734568,17
-326.00242981909287,13.199999809265137
-324.85053724653517,3.2000000476837158
-323.69886687524559,14.199999809265137
-322.54741866080076,6.1999998092651367
-321.39619255879552,-1.3999999761581421
-320.24518852482652,-3.2000000476837158
-319.09440651450677,-2
-317.9438464834584,-0.20000000298023224
-316.79350838731807,-3.5999999046325684
-315.64339218173154,-6.5999999046325684
-314.49349782234822,-7.4000000953674316
-313.34382526483751,-5.8000001907348633
-312.19437446487791,-6.1999998092651367
-311.04514537814794,3.2000000476837158
-309.89613796035519,-3.4000000953674316
-308.74735216720546,-6.1999998092651367
-307.59878795441546,-8.6000003814697266
-306.45044527772006,-3.2000000476837158
-305.30232409285418,0.40000000596046448
-304.1544243555727,-1
-303.00674602163963,-7
-301.85928904682078,-2.7999999523162842
-300.71205338690925,-11.800000190734863
-299.56503899768541,-9
-298.41824583496964,2.2000000476837158
-297.27167385456596,-0.20000000298023224
-296.12532301230749,-6.5999999046325684
-294.97919326402553,-4
-293.83328456556956,-1.7999999523162842
-292.6875968728,-10.399999618530273
-291.54213014158267,-2.5999999046325684
-290.39688432779803,-5
-289.25185938733557,-1.6000000238418579
-288.10705527609389,-5
-286.96247194998614,-2
-285.81810936493457,-9
-284.67396747687235,-4.1999998092651367
-283.53004624174173,0
-282.38634561549406,-6
-281.24286555409708,2.2000000476837158
-280.09960601352395,-1.7999999523162842
-278.95656694976424,-3.2000000476837158
-277.81374831880566,-4.8000001907348633
-276.67115007666143,0.40000000596046448
-275.52877217934838,-1.3999999761581421
-274.38661458289062,-3.5999999046325684
-273.24467724332862,-2.5999999046325684
-272.10296011671562,-3.5999999046325684
-270.961463159103,0
-269.82018632656946,0.60000002384185791
-268.67912957519366,3.7999999523162842
-267.53829286106156,-6.8000001907348633
-266.39767614028096,2.5999999046325684
-265.25727936895964,-1.6000000238418579
-264.11710250322722,9
-262.97714549921329,3.5999999046325684
-261.8374083130584,-0.800000011920929
-260.6978909009249,3.7999999523162842
-259.55859321897515,-2
-258.41951522338059,8
-257.28065687033632,3.2000000476837158
-256.14201811603016,0.20000000298023224
-255.00359891667358,4
-253.86539922848715,3
-252.7274190076987,5.4000000953674316
-251.58965821054153,7.8000001907348633
-250.45211679326894,5
-249.31479471214516,5.5999999046325684
-248.17769192343076,2
-247.04080838342088,8.6000003814697266
-245.90414404839248,-2.2000000476837158
-244.76769887465525,11.800000190734863
-243.63147281852252,4.8000001907348633
-242.49546583631673,16.399999618530273
-241.35967788436938,9.8000001907348633
-240.22410891902837,12
-239.08875889664705,10.800000190734863
-237.95362777358059,13.600000381469727
-236.81871550621872,15.399999618530273
-235.6840220509439,12.800000190734863
-234.54954736414584,13.600000381469727
-233.41529140224156,14.199999809265137
-232.28125412163718,11.399999618530273
-231.14743547876969,16
-230.0138354300725,13.199999809265137
-228.88045393199536,21.200000762939453
-227.74729094100257,25.399999618530273
-226.61434641355845,22.399999618530273
-225.48162030614367,12.199999809265137
-224.349112575248,32
-223.21682317737577,24
-222.08475206903313,19.200000762939453
-220.95289920674804,27.799999237060547
-219.82126454705212,23
-218.68984804648244,22.200000762939453
-217.5586496615997,32.400001525878906
-216.427669348961,20.799999237060547
-215.29690706514521,29
-214.16636276673125,24.399999618530273
-213.03603641032169,30.600000381469727
-211.90592795251541,33.599998474121094
-210.77603734992772,32.599998474121094
-209.64636455919026,35.200000762939453
-208.51690953693469,39.400001525878906
-207.38767223980722,33.599998474121094
-206.25865262447223,31.200000762939453
-205.12985064758868,34.400001525878906
-204.00126626584097,37
-202.87289943590986,33.200000762939453
-201.74475011450158,39
-200.61681825831874,37.799999237060547
-199.48910382408758,34.599998474121094
-198.36160676853797,34.200000762939453
-197.23432704840525,42.400001525878906
-196.10726462043749,39.599998474121094
-194.98041944140277,42.799999237060547
-193.85379146806918,45.400001525878906
-192.72738065721751,34.599998474121094
-191.6011869656395,38.200000762939453
-190.47521035013779,44.200000762939453
-189.34945076753138,42.599998474121094
-188.22390817463383,45.400001525878906
-187.09858252828053,38.599998474121094
-185.97347378531958,45.200000762939453
-184.84858190259911,39.599998474121094
-183.72390683699086,46.599998474121094
-182.59944854536116,40
-181.47520698460175,46.599998474121094
-180.35118211159897,47.599998474121094
-179.22737388326641,50.400001525878906
-178.1037822565213,47.400001525878906
-176.9804071882827,52.200000762939453
-175.85724863548785,58.599998474121094
-174.73430655509037,61
-173.61158090404206,65.5999984741211
-172.48907163931108,74.5999984741211
-171.36677871787106,61.599998474121094
-170.24470209671563,73.4000015258789
-169.12284173284024,90
-168.00119758325309,85.4000015258789
-166.8797696049769,95.5999984741211
-165.75855775503624,97.199996948242188
-164.6375619904702,91
-163.51678226832883,114.40000152587891
-162.39621854567667,123.59999847412109
-161.27587077957287,130
-160.15573892710927,133.60000610351563
-159.03582294536864,143.80000305175781
-157.91612279145556,147.19999694824219
-156.79663842247828,150.39999389648438
-155.67736979555957,149.80000305175781
-154.55831686783313,150.39999389648438
-153.43947959643447,157
-152.32085793852275,145.39999389648438
-151.20245185125532,152.39999389648438
-150.08426129180589,147
-148.96628621735545,155
-147.84852658509953,155.60000610351563
-146.73098235223915,167.19999694824219
-145.61365347598803,168
-144.49653991357081,170.60000610351563
-143.3796416222176,186
-142.26295855917488,187
-141.14649068169638,192.19999694824219
-140.03023794704677,203
-138.91420031250163,221.39999389648438
-137.79837773533836,222.60000610351563
-136.68277017286164,231
-135.56737758237068,245.60000610351563
-134.45219992117563,269.39999389648438
-133.33723714661573,273
-132.22248921601567,306.20001220703125
-131.10795608672197,314.20001220703125
-129.99363771609387,336.39999389648438
-128.87953406149063,345.39999389648438
-127.76564508029878,368.60000610351563
-126.65197072989395,378.60000610351563
-125.53851096768085,408
-124.4252657510624,442.39999389648438
-123.31223503745423,455.60000610351563
-122.19941878428472,482
-121.08681694899133,507
-119.97442948901517,540
-118.8622563618228,540.4000244140625
-117.75029752487717,570.4000244140625
-116.63855293565393,588.5999755859375
-115.52702255164331,601.4000244140625
-114.41570633034462,646.20001220703125
-113.30460422925898,642.79998779296875
-112.19371620590573,672.20001220703125
-111.08304221782055,710.4000244140625
-109.97258222253549,728.4000244140625
-108.86233617759535,776.20001220703125
-107.75230404056492,791
-106.64248576901082,836.5999755859375
-105.53288132051239,860.5999755859375
-104.42349065265807,921.4000244140625
-103.31431372304178,966
-102.20535048927377,1007.2000122070313
-101.09660090898069,1065.199951171875
-99.988064939780088,1113
-98.879742539320432,1158.4000244140625
-97.771633665246554,1244.5999755859375
-96.6637382752142,1295.4000244140625
-95.556056326899125,1391.4000244140625
-94.448587777975263,1459
-93.34133258613474,1562.800048828125
-92.234290709076959,1648.199951171875
-91.1274621045086,1739.5999755859375
-90.020846730150879,1773.800048828125
-88.914444543732316,1785.5999755859375
-87.808255502995962,1822.800048828125
-86.7022795656867,1807.800048828125
-85.596516689563941,1772.4000244140625
-84.490966832401682,1754
-83.385629951977535,1745.199951171875
-82.280506006080032,1726
-81.175594952508618,1797.199951171875
-80.070896749077292,1850.5999755859375
-78.966411353598232,1901.800048828125
-77.862138723905446,1953.5999755859375
-76.7580788178384,2046.4000244140625
-75.654231593249278,2137.39990234375
-74.550597007988472,2191.60009765625
-73.447175019935457,2303.39990234375
-72.3439655869679,2423.800048828125
-71.240968666974368,2549.60009765625
-70.138184217854359,2694.60009765625
-69.035612197516457,2837.199951171875
-67.933252563881979,2977.199951171875
-66.831105274881338,3023.800048828125
-65.7291702884504,3027.60009765625
-64.62744756254142,2999
-63.525937055112081,2989.60009765625
-62.424638724134638,3028.39990234375
-61.323552527588618,3076.60009765625
-60.222678423459,3125.199951171875
-59.122016369747143,3284
-58.02156632446713,3440
-56.92132824563123,3551.800048828125
-55.821302091271718,3643.800048828125
-54.721487819426329,3589.800048828125
-53.621885388145529,3491
-52.522494755494336,3323.39990234375
-51.423315879526854,3197.199951171875
-50.324348718333567,3148.800048828125
-49.225593230001323,3190.39990234375
-48.12704937262788,3331.60009765625
-47.028717104320094,3686.39990234375
-45.930596383199372,4186.39990234375
-44.832687167392578,4734.2001953125
-43.734989415037489,5303
-42.637503084284617,5695
-41.540228133289929,6114.60009765625
-40.443164520223945,6685
-39.346312203260823,7733.7998046875
-38.249671140592909,9172.7998046875
-37.153241290412552,10836
-36.057022610932108,12155.400390625
-34.961015060369391,12655.599609375
-33.865218596949489,12915.2001953125
-32.769633178906588,12585.400390625
-31.6742587644967,11739.2001953125
-30.579095311970377,10504.400390625
-29.484142779594549,9426.400390625
-28.389401125643417,8694.2001953125
-27.29487030841301,8017.7998046875
-26.200550286193902,7596.2001953125
-25.106441017293037,7265.7998046875
-24.012542460020995,6958.39990234375
-22.918854572712007,6659.39990234375
-21.82537731370212,6587
-20.7321106413292,6380.39990234375
-19.639054513960218,6198.60009765625
-18.546208889949412,5909.39990234375
-17.453573727678304,5710
-16.361148985530235,5560
-15.268934621899461,5515.2001953125
-14.176930595191152,5371
-13.085136863823209,5464.60009765625
-11.993553386213534,5461.60009765625
-10.902180120801859,5503.7998046875
-9.8110170260297309,5409.39990234375
-8.720064060353252,5395.2001953125
-7.62932118223398,5218.60009765625
-6.5387883501425677,4518
-5.448465522567858,2844.800048828125
-4.3583526579986938,1224
-3.2684497149384697,815
-2.1787566519033135,1347.199951171875
-1.0892734274111717,1384
0,1229.199951171875
1.0890636717958841,1491.800048828125
2.1779176294185163,3200.199951171875
3.266561914309932,4696.7998046875
4.354996567899434,5231.60009765625
5.443221631601773,5362.2001953125
6.5312371468298807,5524.2001953125
7.6190431549803179,5523.60009765625
8.7066396974460076,5620.2001953125
9.7940268156035017,5611.2001953125
10.881204550825714,5622.2001953125
11.968172944472826,5684.2001953125
13.054932037890467,5808.39990234375
14.141481872427903,5962
15.227822489416212,6199
16.313953930162825,6439.2001953125
17.399876235997,6682.2001953125
18.485589448209794,6903.2001953125
19.571093608095907,7122.60009765625
20.656388756942761,7381
21.74147493601231,7689
22.826352186579243,8087
23.911020549890964,8611.2001953125
24.995480067191238,9229.7998046875
26.079730779716556,10050
27.163772728685217,11258.400390625
28.247605955324616,12551
29.331230500825768,13633.7998046875
30.414646406390602,13944.599609375
31.49785371319922,13935.400390625
32.58085246243354,13199.400390625
33.663642695257295,12199.400390625
34.746224452830575,10534.599609375
35.828597776289826,8716.2001953125
36.910762706780588,7621.7998046875
37.992719285430212,6925.60009765625
39.074467553356953,6381
40.156007551660878,6048.60009765625
41.237339321447507,5518
42.318462903804175,4872.7998046875
43.39937833980548,4268.60009765625
44.48008567053148,3847.800048828125
45.560584937029489,3623.199951171875
46.6408761803541,3584.199951171875
47.720959441552623,3592
48.80083476164873,3725.199951171875
49.880502181658812,3927.199951171875
50.9599617426029,4097.60009765625
52.039213485481014,4179.39990234375
53.118257451287718,4139.60009765625
54.197093680997568,4071.60009765625
55.275722215592396,3898.39990234375
56.354143096026746,3740.39990234375
57.432356363258805,3629.800048828125
58.510362058235842,3591.60009765625
59.588160221886938,3511.39990234375
60.665750895142992,3491.39990234375
61.743134118913076,3546.60009765625
62.820309934106263,3553.60009765625
63.89727838161707,3557.800048828125
64.974039502334563,3497.199951171875
66.050593337131431,3334.199951171875
67.12693992687673,3126.39990234375
68.203079312430418,3036.60009765625
69.2790115346379,2891.199951171875
70.354736634337314,2767
71.43025465235587,2680.39990234375
72.505565629522607,2567.60009765625
73.580669606635638,2472.199951171875
74.655566624502171,2380.800048828125
75.730256723907587,2296.800048828125
76.804739945639085,2245.800048828125
77.879016330462036,2200.39990234375
78.953085919145451,2177.39990234375
80.026948752434691,2168.60009765625
81.10060487107512,2164.199951171875
82.174054315803,2188.39990234375
83.247297127336424,2255
84.320333346397092,2298.39990234375
85.39316301368126,2300.199951171875
86.465786169887,2261.800048828125
87.538202855701456,2203
88.610413111804519,2126.39990234375
89.682416978852416,2029.800048828125
90.754214497510475,1912.5999755859375
91.825805708424014,1778.199951171875
92.897190652229256,1737
93.968369369558786,1610.199951171875
95.039341901027,1536.5999755859375
96.110108287242838,1480
97.180668568809779,1429.4000244140625
98.251022786316753,1363
99.321170980345414,1271.199951171875
100.39111319146468,1241.4000244140625
101.46084946023984,1182
102.53037982722162,1129.199951171875
103.59970433295166,1084.4000244140625
104.66882301796431,1036.4000244140625
105.73773592278485,1020
106.8064430879258,982
107.87494455389424,940.79998779296875
108.94324036118269,916.20001220703125
110.01133055028004,890.5999755859375
111.07921516166243,873.4000244140625
112.1468942357933,832.20001220703125
113.21436781313787,814
114.28163593413956,784.20001220703125
115.3486986392345,761.79998779296875
116.41555596884973,726.5999755859375
117.48220796341775,702.4000244140625
118.54865466334195,679.20001220703125
119.61489610901845,632.5999755859375
120.68093234084154,604.4000244140625
121.74676339919642,582.20001220703125
122.81238932445376,548
123.87781015697874,521.5999755859375
124.94302593711836,502.39999389648438
126.00803670522509,477.60000610351563
127.07284250162593,452.20001220703125
128.13744336665695,421.60000610351563
129.20183934062334,417
130.26603046383752,391
131.33001677659377,384.20001220703125
132.3937983191845,352.60000610351563
133.4573751318876,333.60000610351563
134.52074725496641,315.79998779296875
135.58391472868425,318.39999389648438
136.6468775932899,305.39999389648438
137.70963588902487,293.20001220703125
138.77218965612155,278.20001220703125
139.83453893480146,272.79998779296875
140.89668376527698,263.39999389648438
141.95862418775323,249.80000305175781
143.02036024241897,233.60000610351563
144.0818919694666,236.39999389648438
145.14321940906302,231.19999694824219
146.20434260137881,249.19999694824219
147.26526158656816,226
148.32597640478161,228
149.38648709615154,235
150.4467937008103,236.19999694824219
151.50689625887571,224.19999694824219
152.5667948104583,231
153.62648939565406,233.19999694824219
154.68598005455897,223.80000305175781
155.74526682725445,209.39999389648438
156.8043497538074,204.19999694824219
157.86322887428469,187.80000305175781
158.9219042287441,183.80000305175781
159.98037585721977,170.39999389648438
161.03864379975494,177
162.096708096371,158.80000305175781
163.15456878708392,141.19999694824219
164.21222591190417,143.60000610351563
165.2696795108277,140.39999389648438
166.32692962384135,123.19999694824219
167.38397629092287,126
168.4408195520482,118.59999847412109
169.4974594471696,110.59999847412109
170.55389601624302,104.40000152587891
171.61012929921162,96.4000015258789
172.66615933600406,93.199996948242188
173.7219861665435,89
174.7776098307495,78
175.83303036851612,87
176.88824781974836,84.5999984741211
177.94326222432755,79
178.99807362213323,74.199996948242188
180.05268205302673,75.4000015258789
181.10708755687847,76.5999984741211
182.16129017352432,66
183.21528994280743,72
184.26908690456366,69.4000015258789
185.32268109860706,80.4000015258789
186.37607256475167,75.4000015258789
187.42926134280606,68.4000015258789
188.482247472557,72.5999984741211
189.53503099378759,65.199996948242188
190.58761194627914,73.4000015258789
191.63999036979294,61.200000762939453
192.692166304083,73.4000015258789
193.7441397888997,63.400001525878906
194.79591086397886,61.400001525878906
195.8474795690563,64.5999984741211
196.89884594384057,63.200000762939453
197.95001002804929,66.199996948242188
199.00097186138009,57.599998474121094
200.05173148352878,75.4000015258789
201.10228893417116,52
202.15264425298847,48.599998474121094
203.2027974796365,57.200000762939453
204.25274865377651,51.400001525878906
205.30249781504972,58.599998474121094
206.35204500309737,49.799999237060547
207.4013902575407,53.400001525878906
208.45053361800274,50
209.49947512409562,46.799999237060547
210.54821481540785,55
211.59675273154062,55
212.64508891206788,53.200000762939453
213.69322339656719,47.200000762939453
214.74115622459976,45.799999237060547
215.78888743571224,53
216.83641706946219,54
217.88374516537988,49.799999237060547
218.93087176298468,42.799999237060547
219.97779690180323,55.400001525878906
221.02452062133852,49.799999237060547
222.0710429610881,45.799999237060547
223.11736396054403,39.400001525878906
224.16348365918566,36.400001525878906
225.2094020964887,30.200000762939453
226.25511931190886,45.400001525878906
227.3006353449,36
228.34595023491056,32.599998474121094
229.39106402137622,35.599998474121094
230.43597674371449,29.399999618530273
231.48068844134468,30.600000381469727
232.52519915367702,27.600000381469727
233.569508920109,31.600000381469727
234.61361778002538,24
235.65752577281455,16
236.70123293784127,22
237.74473931446664,24.399999618530273
238.78804494204451,20.399999618530273
239.83114985991779,14.600000381469727
240.87405410742394,21.799999237060547
241.91675772388407,20.200000762939453
242.95926074861745,19.200000762939453
244.00156322093062,13.399999618530273
245.04366518011921,19.399999618530273
246.08556666547338,17.799999237060547
247.12726771627604,16.399999618530273
248.16876837179188,12
249.21006867128381,12.399999618530273
250.25116865401105,13.399999618530273
251.29206835920559,11.800000190734863
252.33276782611392,14.600000381469727
253.37326709395347,16
254.41356620194165,13.199999809265137
255.45366518928495,10
256.49356409518441,9.8000001907348633
257.53326295883016,8
258.57276181939596,4.4000000953674316
259.61206071605739,11
260.65115968797545,5.1999998092651367
261.69005877429845,9
262.72875801417831,8.3999996185302734
263.76725744674513,6.5999999046325684
264.80555711111992,11.399999618530273
265.84365704643096,10.600000381469727
266.88155729177379,1.7999999523162842
267.91925788625122,0.40000000596046448
268.95675886895515,-0.40000000596046448
269.99406027896839,-0.60000002384185791
271.03116215535192,5.5999999046325684
272.06806453717945,2.7999999523162842
273.10476746349923,1
274.14127097334858,2.4000000953674316
275.17757510577758,-2.5999999046325684
276.21367989980354,0.60000002384185791
277.24958539444378,-2.4000000953674316
278.28529162870836,9.6000003814697266
279.32079864159641,2.2000000476837158
280.35610647209614,-3.2000000476837158
281.39121515919214,-1
282.42612474185262,7
283.46083525904578,0.60000002384185791
284.49534674972347,-6
285.52965925283388,0.800000011920929
286.56377280730703,-5.5999999046325684
287.59768745207475,-5.4000000953674316
288.63140322605432,4.5999999046325684
289.66492016815391,-3
290.6982383172799,-3.5999999046325684
291.73135771231318,-2.4000000953674316
292.76427839214739,-5
293.79700039564887,-7.1999998092651367
294.82952376168032,-4.5999999046325684
295.86184852910264,-5.5999999046325684
296.89397473676581,-7.8000001907348633
297.92590242349979,-7
298.95763162813637,2.4000000953674316
299.9891623894946,-2.7999999523162842
301.02049474638625,-2.4000000953674316
302.05162873761219,-8.8000001907348633
303.082564401966,-0.800000011920929
304.1133017782322,-1.2000000476837158
305.14384090518251,1
306.1741818215869,-0.40000000596046448
307.20432456620438,0.800000011920929
308.23426917777579,1.6000000238418579
309.26401569504924,-3.5999999046325684
310.29356415674738,-0.800000011920929
311.32291460160013,3.7999999523162842
312.35206706831377,1.6000000238418579
313.38102159559276,7.5999999046325684
314.40977822213063,4.1999998092651367
315.43833698661547,9
316.46669792772627,8
317.49486108412748,14.800000190734863
318.52282649447989,15.800000190734863
319.55059419743338,31.200000762939453
320.5781642316324,34
321.60553663570317,33.799999237060547
322.63271144827559,41
323.65968870795768,55.200000762939453
324.68646845335934,57.200000762939453
325.71305072307769,58.400001525878906
326.73943555570077,58.799999237060547
327.76562298980934,40.799999237060547
328.79161306396782,27.799999237060547
329.81740581674421,22.600000381469727
330.84300128668838,5.1999998092651367
331.86839951234651,9.6000003814697266
332.89360053224482,8
333.9186043849204,5.5999999046325684
334.9434111088849,-4.4000000953674316
335.96802074264451,-9.1999998092651367
336.9924333247036,-4.4000000953674316
338.016648893552,-7.4000000953674316
339.04066748766672,-3
340.06448914552857,-8.1999998092651367
341.08811390559458,-13.600000381469727
342.11154180632184,-9.1999998092651367
343.13477288616014,-11
344.15780718354108,-14.800000190734863
345.1806447368981,-13.199999809265137
346.20328558465189,-18
347.22572976520678,-6
348.24797731697436,-12.800000190734863
349.2700282783444,-10
350.29188268769758,-8
351.3135405834164,-15.399999618530273
352.3350020038597,-9.6000003814697266
353.35626698739179,-12.600000381469727
354.37733557236061,-12.399999618530273
355.39820779711044,-9
356.41888369996741,-10.399999618530273
357.43936331925579,-13.800000190734863
358.4596466932926,-3.7999999523162842
359.47973386038029,-18
360.4996248588177,-8
361.51931972688908,-7.5999999046325684
362.53881850287689,-1.6000000238418579
363.55812122505267,-15.399999618530273
364.57722793167341,-10.600000381469727
365.59613866099608,-3.4000000953674316
366.61485345126675,-14.600000381469727
367.63337234071332,-9.6000003814697266
368.65169536756548,-9
369.66982257004383,-20.600000381469727
370.68775398635444,-17.200000762939453
371.70548965469789,-6.8000001907348633
372.7230296132675,-19.399999618530273
373.74037390024205,-13.199999809265137
374.75752255379666,-9.3999996185302734
375.7744756120992,-8.1999998092651367
376.79123311330659,-7.1999998092651367
377.80779509556305,-10.199999809265137
378.82416159700733,-9.8000001907348633
379.84033265577273,-12.800000190734863
380.856308309978,-13.600000381469727
381.87208859774,-11.199999809265137
382.88767355716118,-17.200000762939453
383.90306322633296,-10.600000381469727
384.918257643345,-8.8000001907348633
385.933256846276,-14.800000190734863
386.94806087319375,-11.600000381469727
387.96266976215884,-13.600000381469727
388.97708355122268,-11
389.99130227842943,-15.600000381469727
391.005325981816,-10.399999618530273
392.01915469940104,-11.600000381469727
393.03278846921057,-14.399999618530273
394.04622732924145,-14.199999809265137
395.05947131750145,-10.199999809265137
396.072520471982,-19.200000762939453
397.08537483066175,-13.399999618530273
398.09803443151395,-17.600000381469727
399.11049931250454,-13.800000190734863
400.12276951158856,-12.600000381469727
401.13484506671739,-9.3999996185302734
402.14672601582424,-13.399999618530273
403.15841239684596,-24
404.16990424769574,-10.199999809265137
405.18120160629041,-1.3999999761581421
406.19230451053772,-18.600000381469727
407.20321299832722,-7
408.21392710754844,-6.8000001907348633
409.22444687608004,-7.1999998092651367
410.2347723417879,-12
411.24490354253794,-18.600000381469727
412.25484051617786,-12.399999618530273
413.26458330055357,-9.1999998092651367
414.27413193350003,-11.399999618530273
415.28348645284314,-11
416.29264689639967,-13.800000190734863
417.30161330197734,-10.600000381469727
418.310385707382,-5.8000001907348633
419.31896415039773,-15.199999809265137
420.327348668814,-14.399999618530273
421.33553930040034,-13
422.34353608292622,-16.200000762939453
423.35133905414659,-13
424.35894825181094,-11.800000190734863
425.366363713656,-4.8000001907348633
426.37358547742224,-11
427.38061358082268,-11.399999618530273
428.38744806157592,-16.799999237060547
429.39408895738779,-9.6000003814697266
430.40053630595321,-15.600000381469727
431.40679014495618,-12.600000381469727
432.41285051209161,-8.8000001907348633
433.41871744501259,-16
434.42439098139221,-17.200000762939453
435.42987115888172,-9.6000003814697266
436.43515801512694,-19.799999237060547
437.4402515877664,-13.199999809265137
438.44515191442224,-7.5999999046325684
439.44985903272209,-14
440.45437298026809,-19.399999618530273
441.45869379467149,-15.199999809265137
442.4628215135217,-4.1999998092651367
443.46675617440451,-17
444.47049781489659,-17.200000762939453
445.47404647256735,-12.600000381469727
446.47740218497347,-13.199999809265137
447.480564989668,-5.1999998092651367
448.483534924193,-11.199999809265137
449.48631202608703,-4.5999999046325684
450.48889633286853,-6.4000000953674316
451.49128788205962,-14
452.49348671116604,-17.200000762939453
453.49549285768262,-8.1999998092651367
454.49730635911328,-16
455.49892725292921,-16.200000762939453
456.50035557661067,-9.8000001907348633
457.50159136762159,-10.800000190734863
458.50263466341676,-8.1999998092651367
459.503485501451,-11
460.50414391915729,-9.8000001907348633
461.50460995397043,-14.399999618530273
462.5048836433125,-4.5999999046325684
463.50496502460373,-4
464.50485413524257,-8.8000001907348633
465.50455101262742,-10.600000381469727
466.50405569415489,-9.3999996185302734
467.50336821719429,-12
468.50248861912587,-5
469.50141693731166,-1.6000000238418579
470.50015320910279,3.7999999523162842
471.49869747185039,3.5999999046325684
472.49704976288922,-3.2000000476837158
473.49521011955221,-2
474.49317857915776,-0.60000002384185791
475.49095517901515,-7.1999998092651367
476.48853995643731,-6.1999998092651367
477.48593294871353,-15
478.48313419313126,-16.200000762939453
479.48014372697253,-6.4000000953674316
480.47696158750477,-14.399999618530273
481.47358781198818,-12.399999618530273
482.47002243768111,-14.600000381469727
483.46626550182373,-11.600000381469727
484.46231704165621,-10.600000381469727
485.45817709440053,-6.1999998092651367
486.45384569728049,-8.6000003814697266
487.44932288750715,-16.200000762939453
488.44460870228249,-12.600000381469727
489.43970317880303,-7.4000000953674316
490.4346063542489,-14.800000190734863
491.42931826580025,-16.200000762939453
492.4238389506263,-7
493.41816844588539,-16.600000381469727
494.41230678873217,-11.399999618530273
495.40625401630859,-11.399999618530273
496.40001016574752,-15.199999809265137
497.39357527418179,-8.3999996185302734
498.3869493787206,-12.399999618530273
499.3801325164859,-14
500.37312472456688,-20.799999237060547
501.36592604006182,-7
502.35853650005447,-8.3999996185302734
503.35095614162128,-13.600000381469727
504.34318500183144,-7.5999999046325684
505.33522311774323,-12.199999809265137
506.32707052640581,-12.199999809265137
507.3187272648629,-16
508.31019337014914,-12.800000190734863
509.30146887928822,-8.6000003814697266
510.29255382930023,-11.399999618530273
511.28344825719068,-11.199999809265137
512.27415219996328,-11.199999809265137
513.26466569460717,-8.1999998092651367
514.25498877810969,-9
515.24512148744543,-12
516.23506385957626,-13.800000190734863
517.22481593147131,-16.399999618530273
518.214377740067,-7.5999999046325684
519.20374932231425,-7.8000001907348633
520.19293071514585,-11.800000190734863
521.18192195548909,-12
522.17072308025308,-8.8000001907348633
523.15933412635422,-19.200000762939453
524.14775513068525,-7.4000000953674316
525.13598613014619,-14
526.12402716160977,-9
527.11187826196146,-12.399999618530273
528.09953946806127,-11.199999809265137
529.08701081677282,-13.399999618530273
530.07429234493793,-3.4000000953674316
531.06138408940751,-4.1999998092651367
532.048286087007,-11
533.03499837456729,-7.1999998092651367
534.0215209889011,-15.399999618530273
535.00785396682113,-11.800000190734863
535.99399734512008,-10
536.97995116059792,-13.800000190734863
537.965715450031,-14.800000190734863
538.95129025019924,-12
539.93667559786809,-13.800000190734863
540.921871529792,-11
541.90687808272924,-11.800000190734863
542.89169529341052,-8.6000003814697266
543.87632319857767,-11.600000381469727
544.86076183495788,-4.1999998092651367
545.84501123925838,-12.199999809265137
546.82907144819546,-11
547.8129424984636,-12
548.7966244267609,-18.600000381469727
549.78011726976547,-13.600000381469727
550.76342106415723,-7.5999999046325684
551.74653584660155,-6
552.7294616537547,-11.199999809265137
553.71219852227114,-3.5999999046325684
554.69474648879077,-11.199999809265137
555.677105589948,-10
556.65927586237194,-11.800000190734863
557.64125734267327,-5.4000000953674316
558.62305006746465,-13.600000381469727
559.604654073346,-11.399999618530273
560.58606939691163,-14.600000381469727
561.56729607475063,-9
562.54833414342647,-4.5999999046325684
563.5291836395154,-7.1999998092651367
564.50984459957726,-14.800000190734863
565.490317060161,-8
566.4706010578102,-7.1999998092651367
567.450696629061,-11
568.43060381044052,-2.4000000953674316
569.41032263846137,-2.4000000953674316
570.38985314963975,7.8000001907348633
571.36919538047732,-5.5999999046325684
572.348349367463,1.7999999523162842
573.32731514708939,-0.800000011920929
574.30609275582538,-11.199999809265137
575.28468223014534,-10.800000190734863
576.26308360651274,-8.6000003814697266
577.24129692136921,-5.5999999046325684
578.219322211171,-6.4000000953674316
579.197159512345,-14.399999618530273
580.17480886132762,-10.199999809265137
581.15227029453308,-8.8000001907348633
582.12954384837394,-7.4000000953674316
583.10662955925181,-15.199999809265137
584.08352746356286,-0.40000000596046448
585.06023759769778,-12.399999618530273
586.03675999802908,-11.800000190734863
587.01309470092929,-8.1999998092651367
587.98924174276181,-13.800000190734863
588.965201159881,-12.600000381469727
589.940972988632,-6.4000000953674316
590.916557265351,-6.5999999046325684
591.89195402637051,-9.8000001907348633
592.86716330800846,-10
593.84218514657914,-12.800000190734863
594.81701957839141,-11.199999809265137
595.79166663973774,-2.5999999046325684
596.76612636690516,-17.200000762939453
597.74039879617885,-10.199999809265137
598.71448396382948,-9.1999998092651367
599.68838190611859,-14.399999618530273
600.66209265930229,-13.800000190734863
601.63561625963666,-6.5999999046325684
602.60895274334871,-13.199999809265137
603.58210214668,-4
604.55506450584653,-14
605.52783985706992,-9.3999996185302734
606.50042823655167,-12.800000190734863
607.472829680497,-8.3999996185302734
608.44504422508908,-11.399999618530273
609.41707190651687,-10.199999809265137
610.38891276095092,-11
611.36056682456,-14.199999809265137
612.332034133502,-5.5999999046325684
613.3033147239239,-3.2000000476837158
614.2744086319708,-8.8000001907348633
615.24531589377693,-0.40000000596046448
616.216036545462,-5.1999998092651367
617.18657062315287,-8.3999996185302734
618.15691816295475,-5.8000001907348633
619.12707920096727,-8.1999998092651367
620.09705377328282,-8.3999996185302734
621.06684191599379,-10.800000190734863
622.03644366517074,-9.3999996185302734
623.0058590568824,-11.800000190734863
623.97508812719207,-6.1999998092651367
624.94413091215029,-13.399999618530273
625.912987447804,-11.600000381469727
626.88165777019094,-9
627.85014191533446,-8.3999996185302734
628.81843991925962,-13
629.78655181797694,-12
630.75447764748969,-13.399999618530273
631.72221744379385,-17.600000381469727
632.68977124288176,-13.199999809265137
633.65713908072576,-6.4000000953674316
634.62432099330545,-6.5999999046325684
635.59131701657861,-4.5999999046325684
636.55812718650486,-12.199999809265137
637.52475153902742,-12.399999618530273
638.49119011009134,-17
639.45744293562529,-7.5999999046325684
640.42351005155251,-8.6000003814697266
641.38939149379257,-13.399999618530273
642.355087298245,-9
643.32059750081135,-6
644.28592213738557,-15.399999618530273
645.25106124385456,-5.4000000953674316
646.216014856087,-12.600000381469727
647.18078300994785,-12.199999809265137
648.1453657413058,-4
649.10976308600038,-13.199999809265137
650.07397507988208,-4.8000001907348633
651.03800175878678,-12
652.00184315853767,-7.5999999046325684
652.96549931495247,-10.399999618530273
653.92897026384526,-10.399999618530273
654.89225604101739,-13.399999618530273
655.85535668226476,-13
656.81827222337415,-5.8000001907348633
657.78100270012328,-10.600000381469727
658.74354814828257,-7.8000001907348633
659.70590860361335,-15.399999618530273
660.66808410187514,-9
661.63007467881289,-9
662.59188037016247,-8.1999998092651367
663.55350121165611,-9.1999998092651367
664.514937239017,-9.6000003814697266
665.47618848796083,-7.8000001907348633
666.4372549941927,-7.4000000953674316
667.39813679341023,-10.399999618530273
668.35883392130745,-4.5999999046325684
669.31934641356565,-8.8000001907348633
670.27967430585886,-7.8000001907348633
671.23981763385382,-5
672.19977643321,-4.4000000953674316
673.15955073957775,-9.3999996185302734
674.119140588602,-7.8000001907348633
675.07854601591134,-12.600000381469727
676.03776705714154,-14.199999809265137
676.99680374790478,-9.3999996185302734
677.95565612381506,-9.3999996185302734
678.91432422047183,-9.6000003814697266
679.87280807347634,-12
680.83110771841166,-2.2000000476837158
681.78922319085541,-12.199999809265137
682.74715452638156,-8
683.70490176055318,-14.800000190734863
684.66246492892424,-9.6000003814697266
