-777.74687133807856,-1.6000000238418579
-776.50770429765,-0.60000002384185791
-775.26877705141487,3.7999999523162842
-774.03008955063888,-4.8000001907348633
-772.79164174658763,1.6000000238418579
-771.55343359055223,6.1999998092651367
-770.31546503381287,-0.20000000298023224
-769.07773602767884,7
-767.8402465234667,-2
-766.60299647250758,0.800000011920929
-765.36598582614351,-3.2000000476837158
-764.12921453572744,-2.4000000953674316
-762.89268255262323,1.7999999523162842
-761.65638982821292,5.1999998092651367
-760.42033631388222,0.20000000298023224
-759.184521961035,-1.6000000238418579
-757.948946721086,-0.40000000596046448
-756.71361054546833,7
-755.47851338560758,3
-754.24365519296589,9.1999998092651367
-753.009035918998,0
-751.77465551518071,6.1999998092651367
-750.5405139330087,7.1999998092651367
-749.30661112396592,2.4000000953674316
-748.0729470395836,1.6000000238418579
-746.8395216313711,6.1999998092651367
-745.60633485086328,4.5999999046325684
-744.3733866496168,3.4000000953674316
-743.14067697918108,-3.2000000476837158
-741.90820579113461,0.40000000596046448
-740.67597303705952,5.4000000953674316
-739.44397866855252,2.7999999523162842
-738.21222263721756,-4.5999999046325684
-736.98070489468046,11.199999809265137
-735.749425392567,0.40000000596046448
-734.51838408252479,3.4000000953674316
-733.28758091621239,1.3999999761581421
-732.057015845292,-0.40000000596046448
-730.82668882144753,-0.20000000298023224
-729.59659979637036,-3.4000000953674316
-728.366748721759,-2
-727.13713554934475,6.4000000953674316
-725.90776023084072,0.800000011920929
-724.67862271799277,-3.2000000476837158
-723.449722962554,3
-722.22106091628848,2.7999999523162842
-720.99263653096386,3.5999999046325684
-719.76444975838785,-1.3999999761581421
-718.53650055034268,4.1999998092651367
-717.308788858647,0
-716.08131463512655,4
-714.85407783161827,-4.4000000953674316
-713.62707839996983,-0.40000000596046448
-712.40031629203258,0.800000011920929
-711.17379145969062,-0.800000011920929
-709.94750385482075,4.1999998092651367
-708.72145342932527,1
-707.49564013510644,0.800000011920929
-706.27006392408839,0.60000002384185791
-705.04472474819522,3.4000000953674316
-703.81962255938379,3.5999999046325684
-702.59475730959639,2.5999999046325684
-701.3701289508117,5.5999999046325684
-700.14573743500478,2.7999999523162842
-698.9215827141652,-3.4000000953674316
-697.69766474030075,6.1999998092651367
-696.47398346541922,5.1999998092651367
-695.25053884156114,1.2000000476837158
-694.02733082075611,-0.800000011920929
-692.80435935505557,-12.199999809265137
-691.58162439652915,2
-690.35912589724649,-1.2000000476837158
-689.13686380929175,6.8000001907348633
-687.91483808476733,0.60000002384185791
-686.69304867578649,7.8000001907348633
-685.47149553447343,-2.2000000476837158
-684.25017861295237,3.5999999046325684
-683.02909786337659,-1.7999999523162842
-681.80825323790668,2.5999999046325684
-680.5876446887105,-0.60000002384185791
-679.3672721679668,4.1999998092651367
-678.14713562787256,0.800000011920929
-676.92723502063564,2
-675.70757029846391,1.3999999761581421
-674.48814141360162,8
-673.26894831827849,-1.3999999761581421
-672.04999096475331,1.2000000476837158
-670.83126930528488,6.5999999046325684
-669.61278329215747,-2.2000000476837158
-668.39453287765537,-1.6000000238418579
-667.176518014081,0
-665.95873865374051,8
-664.7411947489727,-5
-663.5238862520946,-4.4000000953674316
-662.30681311546687,7
-661.0899752914429,-5.4000000953674316
-659.87337273240155,7.8000001907348633
-658.6570053907144,0.20000000298023224
-657.44087321878942,2
-656.22497616902,1.3999999761581421
-655.009314193836,1
-653.79388724565979,-2.4000000953674316
-652.57869527693947,1.6000000238418579
-651.363738240123,-2.2000000476837158
-650.14901608768014,1.7999999523162842
-648.93452877208438,-0.20000000298023224
-647.720276245831,-2.5999999046325684
-646.5062584614152,4
-645.29247537135416,3
-644.078926928165,4.5999999046325684
-642.86561308439377,10.399999618530273
-641.65253379257956,-2.2000000476837158
-640.43968900529035,5.8000001907348633
-639.22707867508689,7
-638.01470275456631,1.7999999523162842
-636.80256119630758,1
-635.590653952926,2.4000000953674316
-634.37898097704056,8
-633.16754222128111,4
-631.95633763828118,-4.1999998092651367
-630.745367180707,-1
-629.534630801214,2.7999999523162842
-628.32412845248655,-2.4000000953674316
-627.11386008720547,8.1999998092651367
-625.9038256580734,-1.2000000476837158
-624.69402511780754,2.4000000953674316
-623.48445841912508,-1.6000000238418579
-622.27512551476138,0.20000000298023224
-621.0660263574664,4.5999999046325684
-619.85716089999733,5.4000000953674316
-618.64852909512592,0.20000000298023224
-617.44013089563123,2.4000000953674316
-616.2319662543141,-6.4000000953674316
-615.0240351239645,7.4000000953674316
-613.81633745741237,4.4000000953674316
-612.60887320749134,6
-611.40164232702409,-3.2000000476837158
-610.194644768877,3.2000000476837158
-608.98788048590177,3.7999999523162842
-607.781349430983,3.5999999046325684
-606.57505155700892,1.2000000476837158
-605.36898681687126,3.4000000953674316
-604.1631551634764,4.4000000953674316
-602.95755654975983,3.4000000953674316
-601.75219092864245,3.2000000476837158
-600.54705825307065,6.4000000953674316
-599.34215847600535,1.6000000238418579
-598.13749155041478,-3.4000000953674316
-596.93305742927441,2.4000000953674316
-595.72885606557793,1.3999999761581421
-594.52488741232992,-4.5999999046325684
-593.32115142254224,5.8000001907348633
-592.117648049245,-2.2000000476837158
-590.91437724546449,8.6000003814697266
-589.71133896426,6.1999998092651367
-588.50853315869062,-1.2000000476837158
-587.30595978182646,-0.60000002384185791
-586.10361878675576,1.3999999761581421
-584.90151012657043,1
-583.69963375437328,5.5999999046325684
-582.49798962329442,3.4000000953674316
-581.296577686453,5
-580.09539789699556,1
-578.894450208074,-3.4000000953674316
-577.69373457285474,1.6000000238418579
-576.4932509445116,3
-575.29299927623651,1
-574.09297952122142,3.5999999046325684
-572.89319163268192,-2.4000000953674316
-571.69363556384451,0.800000011920929
-570.49431126793752,-4
-569.29521869820383,2.5999999046325684
-568.09635780790632,-0.800000011920929
-566.89772855030969,-1
-565.69933087869686,7.8000001907348633
-564.50116474635433,-4.4000000953674316
-563.30323010658867,10.199999809265137
-562.1055269127155,-2.4000000953674316
-560.90805511805775,3.4000000953674316
-559.710814675951,2.4000000953674316
-558.513805539751,-3.4000000953674316
-557.31702766280978,-3.2000000476837158
-556.12048099851017,3.5999999046325684
-554.92416550022062,-7.5999999046325684
-553.72808112134589,-2.2000000476837158
-552.53222781529075,2.4000000953674316
-551.33660553547088,-1.2000000476837158
-550.14121423531651,-0.800000011920929
-548.94605386826515,-5.1999998092651367
-547.75112438777614,2.2000000476837158
-546.55642574730518,1.3999999761581421
-545.361957900328,-4.8000001907348633
-544.167720800333,1.3999999761581421
-542.97371440082134,0.800000011920929
-541.77993865529243,-0.40000000596046448
-540.58639351727652,3.7999999523162842
-539.39307894030026,-1.3999999761581421
-538.19999487790665,0.60000002384185791
-537.00714128365507,-2
-535.81451811110674,-3.4000000953674316
-534.622125313841,3.5999999046325684
-533.42996284544643,4.5999999046325684
-532.23803065952234,-2
-531.04632870968271,2
-529.85485694955059,3.4000000953674316
-528.66361533275631,4
-527.47260381295564,2.2000000476837158
-526.28182234379165,1.7999999523162842
-525.09127087894194,-3.4000000953674316
-523.90094937208778,2.2000000476837158
-522.71085777691223,-1
-521.52099604712748,1
-520.33136413644206,-0.60000002384185791
-519.14196199858088,-2.7999999523162842
-517.95278958728341,0
-516.76384685629819,3.4000000953674316
-515.57513375937924,-0.60000002384185791
-514.38665025030423,-6.4000000953674316
-513.19839628285263,-1.6000000238418579
-512.01037181081665,-3.4000000953674316
-510.82257678800124,5.1999998092651367
-509.63501116822226,-2
-508.44767490530649,4.4000000953674316
-507.26056795309523,4.5999999046325684
-506.07369026543893,4.1999998092651367
-504.88704179619526,-5.5999999046325684
-503.70062249923831,-6.4000000953674316
-502.51443232845486,2.4000000953674316
-501.32847123773354,2.2000000476837158
-500.14273918098661,-1.2000000476837158
-498.95723611213,5.1999998092651367
-497.77196198509228,4.8000001907348633
-496.58691675381124,-2.2000000476837158
-495.40210037224642,1.2000000476837158
-494.21751279435375,-3.7999999523162842
-493.03315397410915,-4.1999998092651367
-491.84902386549584,-1
-490.665122422517,-4.8000001907348633
-489.48144959917408,0.20000000298023224
-488.29800534949027,0.40000000596046448
-487.11478962749243,1
-485.93180238722562,4.5999999046325684
-484.74904358273852,5.5999999046325684
-483.5665131681053,-3.4000000953674316
-482.38421109738738,-0.60000002384185791
-481.2021373246771,1.7999999523162842
-480.0202918040759,-0.800000011920929
-478.83867448969067,-2.5999999046325684
-477.65728533564106,4.8000001907348633
-476.47612429605579,0.20000000298023224
-475.2951913250854,-2.2000000476837158
-474.11448637687681,0.800000011920929
-472.93400940559695,-2
-471.75376036542184,0
-470.57373921054023,0
-469.39394589515177,-4.5999999046325684
-468.21438037346343,1.3999999761581421
-467.03504259970032,-4
-465.8559325280894,-5
-464.67705011287944,-0.800000011920929
-463.49839530831923,-4.4000000953674316
-462.31996806867937,5
-461.14176834823775,-0.800000011920929
-459.96379610127588,4.8000001907348633
-458.78605128210074,-7.5999999046325684
-457.60853384501752,6.1999998092651367
-456.43124374435138,-5.5999999046325684
-455.25418093443295,-6.1999998092651367
-454.07734536960925,0.60000002384185791
-452.90073700422909,-1.7999999523162842
-451.7243557926613,-2.4000000953674316
-450.54820168928381,2.7999999523162842
-449.37227464848911,-3.4000000953674316
-448.19657462467148,2.4000000953674316
-447.02110157224524,2.7999999523162842
-445.84585544562833,4.5999999046325684
-444.67083619925324,-1.7999999523162842
-443.49604378757067,-1.3999999761581421
-442.32147816503129,2
-441.14713928610036,-1.7999999523162842
-439.97302710525764,-1
-438.79914157698659,-5.5999999046325684
-437.62548265579426,-1.2000000476837158
-436.45205029618774,-4.8000001907348633
-435.27884445268865,-4.5999999046325684
-434.10586507982771,3.2000000476837158
-432.93311213215566,-1.3999999761581421
-431.76058556421776,2.7999999523162842
-430.58828533058477,-2.5999999046325684
-429.41621138583832,-0.20000000298023224
-428.24436368456008,-1.7999999523162842
-427.07274218135353,0
-425.90134683082943,-2.4000000953674316
-424.73017758760216,4
-423.55923440631159,-4.8000001907348633
-422.38851724159576,-1
-421.21802604811455,-3.7999999523162842
-420.04776078052782,-3.2000000476837158
-418.87772139351546,-1.2000000476837158
-417.70790784176643,2.2000000476837158
-416.53832007998062,-5.4000000953674316
-415.36895806286157,3.2000000476837158
-414.19982174513279,1.7999999523162842
-413.03091108152512,-1.6000000238418579
-411.86222602678754,-3.5999999046325684
-410.69376653566542,1.7999999523162842
-409.52553256292776,-1.3999999761581421
-408.35752406334905,-6
-407.18974099171828,-3.7999999523162842
-406.02218330282813,-0.40000000596046448
-404.85485095149124,-5.4000000953674316
-403.68774389253122,-2.4000000953674316
-402.5208620807698,-7.8000001907348633
-401.35420547105241,-4
-400.18777401823172,-1.6000000238418579
-399.02156767717497,-1.2000000476837158
-397.85558640275485,-2.4000000953674316
-396.68983014985315,3.4000000953674316
-395.52429887336984,-0.20000000298023224
-394.35899252820855,-3.7999999523162842
-393.1939110692947,0.40000000596046448
-392.02905445155375,0
-390.8644226299275,-2.5999999046325684
-389.70001555936324,1
-388.53583319482641,-5.8000001907348633
-387.37187549128976,-2.7999999523162842
-386.20814240373875,4.5999999046325684
-385.04463388716613,-6.5999999046325684
-383.8813498965792,3.2000000476837158
-382.71829038699252,-9.3999996185302734
-381.55545531343887,0
-380.392844630951,-0.60000002384185791
-379.23045829458351,2.7999999523162842
-378.06829625939463,-5.5999999046325684
-376.90635848045895,-5.1999998092651367
-375.74464491285289,-0.60000002384185791
-374.58315551167289,-3.7999999523162842
-373.42189023202263,1
-372.26084902901857,3
-371.10003185778623,-5
-369.93943867346024,-0.60000002384185791
-368.77906943119342,-2.2000000476837158
-367.61892408613858,0.40000000596046448
-366.45900259346672,-6.4000000953674316
-365.29930490835977,-2
-364.13983098601057,-2.4000000953674316
-362.98058078161557,-0.60000002384185791
-361.82155425039127,-0.60000002384185791
-360.66275134756324,-2.4000000953674316
-359.5041720283607,-3
-358.34581624803286,0.20000000298023224
-357.18768396183805,2.5999999046325684
-356.02977512504185,-7.5999999046325684
-354.87208969291896,-1.2000000476837158
-353.71462762076044,0
-352.55738886386462,0.60000002384185791
-351.400373377548,-4.8000001907348633
-350.24358111712354,1.2000000476837158
-349.08701203792953,-6.8000001907348633
-347.93066609530615,1.7999999523162842
-346.77454324460632,6.5999999046325684
-345.61864344119567,-3.2000000476837158
-344.46296664044894,-3.4000000953674316
-343.30751279775541,-0.40000000596046448
-342.15228186851164,0.20000000298023224
-340.99727380812146,1.3999999761581421
-339.84248857200873,2.5999999046325684
-338.68792611559365,-5.5999999046325684
-337.53358639432554,3.2000000476837158
-336.37946936365006,-3
-335.2255749790329,9.3999996185302734
-334.07190319594883,12
-332.918453969869,14.199999809265137
-331.76522725630093,10.399999618530273
-330.61222301074304,12.600000381469727
-329.45944118871012,13.800000190734863
-328.30688174573515,14.800000190734863
-327.15454463734568,12.600000381469727
-326.00242981909287,13.800000190734863
-324.85053724653517,15
-323.69886687524559,8.6000003814697266
-322.54741866080076,9.6000003814697266
-321.39619255879552,0.800000011920929
-320.24518852482652,0.60000002384185791
-319.09440651450677,3.2000000476837158
-317.9438464834584,-0.20000000298023224
-316.79350838731807,9.3999996185302734
-315.64339218173154,-1.6000000238418579
-314.49349782234822,3
-313.34382526483751,1.6000000238418579
-312.19437446487791,0.800000011920929
-311.04514537814794,1.3999999761581421
-309.89613796035519,5
-308.74735216720546,0.40000000596046448
-307.59878795441546,-1
-306.45044527772006,3.5999999046325684
-305.30232409285418,3.5999999046325684
-304.1544243555727,-3.4000000953674316
-303.00674602163963,3.4000000953674316
-301.85928904682078,-8.1999998092651367
-300.71205338690925,2.2000000476837158
-299.56503899768541,-0.40000000596046448
-298.41824583496964,-0.800000011920929
-297.27167385456596,3
-296.12532301230749,1.2000000476837158
-294.97919326402553,0.40000000596046448
-293.83328456556956,3.2000000476837158
-292.6875968728,1.7999999523162842
-291.54213014158267,0.800000011920929
-290.39688432779803,-1
-289.25185938733557,5.8000001907348633
-288.10705527609389,-0.40000000596046448
-286.96247194998614,-1.6000000238418579
-285.81810936493457,-3.5999999046325684
-284.67396747687235,6.8000001907348633
-283.53004624174173,1
-282.38634561549406,-0.40000000596046448
-281.24286555409708,4.1999998092651367
-280.09960601352395,10.399999618530273
-278.95656694976424,-2.2000000476837158
-277.81374831880566,-2
-276.67115007666143,-4
-275.52877217934838,-0.40000000596046448
-274.38661458289062,9.1999998092651367
-273.24467724332862,-0.800000011920929
-272.10296011671562,10
-270.961463159103,0.60000002384185791
-269.82018632656946,4
-268.67912957519366,8
-267.53829286106156,-1.3999999761581421
-266.39767614028096,0.20000000298023224
-265.25727936895964,8
-264.11710250322722,4.5999999046325684
-262.97714549921329,3
-261.8374083130584,8.8000001907348633
-260.6978909009249,-2.2000000476837158
-259.55859321897515,8.8000001907348633
-258.41951522338059,6
-257.28065687033632,1.6000000238418579
-256.14201811603016,2
-255.00359891667358,7.5999999046325684
-253.86539922848715,3.7999999523162842
-252.7274190076987,3.5999999046325684
-251.58965821054153,8.6000003814697266
-250.45211679326894,12.199999809265137
-249.31479471214516,7.4000000953674316
-248.17769192343076,3.2000000476837158
-247.04080838342088,13.800000190734863
-245.90414404839248,-0.40000000596046448
-244.76769887465525,8.3999996185302734
-243.63147281852252,11.800000190734863
-242.49546583631673,7.4000000953674316
-241.35967788436938,10.399999618530273
-240.22410891902837,5
-239.08875889664705,14.199999809265137
-237.95362777358059,13.399999618530273
-236.81871550621872,13.199999809265137
-235.6840220509439,9
-234.54954736414584,10.399999618530273
-233.41529140224156,15
-232.28125412163718,14.399999618530273
-231.14743547876969,17
-230.0138354300725,12.199999809265137
-228.88045393199536,13.199999809265137
-227.74729094100257,11
-226.61434641355845,22.200000762939453
-225.48162030614367,14
-224.349112575248,18.200000762939453
-223.21682317737577,18
-222.08475206903313,22
-220.95289920674804,18.399999618530273
-219.82126454705212,13.600000381469727
-218.68984804648244,19.600000381469727
-217.5586496615997,14.399999618530273
-216.427669348961,18.600000381469727
-215.29690706514521,12.800000190734863
-214.16636276673125,17
-213.03603641032169,21.799999237060547
-211.90592795251541,13.399999618530273
-210.77603734992772,23.600000381469727
-209.64636455919026,24.200000762939453
-208.51690953693469,26.399999618530273
-207.38767223980722,28.399999618530273
-206.25865262447223,14.800000190734863
-205.12985064758868,27.399999618530273
-204.00126626584097,24.799999237060547
-202.87289943590986,22.399999618530273
-201.74475011450158,34.400001525878906
-200.61681825831874,21.600000381469727
-199.48910382408758,27.200000762939453
-198.36160676853797,24
-197.23432704840525,27.799999237060547
-196.10726462043749,17
-194.98041944140277,26
-193.85379146806918,24
-192.72738065721751,26.200000762939453
-191.6011869656395,30.600000381469727
-190.47521035013779,27.600000381469727
-189.34945076753138,21.600000381469727
-188.22390817463383,22.200000762939453
-187.09858252828053,28.600000381469727
-185.97347378531958,38
-184.84858190259911,26.399999618530273
-183.72390683699086,28
-182.59944854536116,28.799999237060547
-181.47520698460175,30.200000762939453
-180.35118211159897,34.599998474121094
-179.22737388326641,32
-178.1037822565213,40.599998474121094
-176.9804071882827,31.799999237060547
-175.85724863548785,35.799999237060547
-174.73430655509037,34.400001525878906
-173.61158090404206,40
-172.48907163931108,47.599998474121094
-171.36677871787106,52.599998474121094
-170.24470209671563,48.200000762939453
-169.12284173284024,49.799999237060547
-168.00119758325309,45.799999237060547
-166.8797696049769,54.599998474121094
-165.75855775503624,62.799999237060547
-164.6375619904702,65.800003051757813
-163.51678226832883,65.800003051757813
-162.39621854567667,68
-161.27587077957287,70.800003051757813
-160.15573892710927,75
-159.03582294536864,81.5999984741211
-157.91612279145556,77.800003051757813
-156.79663842247828,86.5999984741211
-155.67736979555957,86.5999984741211
-154.55831686783313,91.800003051757813
-153.43947959643447,84
-152.32085793852275,86.199996948242188
-151.20245185125532,95.5999984741211
-150.08426129180589,95.4000015258789
-148.96628621735545,97.5999984741211
-147.84852658509953,96.4000015258789
-146.73098235223915,97
-145.61365347598803,100.80000305175781
-144.49653991357081,108.59999847412109
-143.3796416222176,97.800003051757813
-142.26295855917488,110.40000152587891
-141.14649068169638,122.40000152587891
-140.03023794704677,117.19999694824219
-138.91420031250163,131
-137.79837773533836,133.39999389648438
-136.68277017286164,130.80000305175781
-135.56737758237068,147.60000610351563
-134.45219992117563,165.39999389648438
-133.33723714661573,158.80000305175781
-132.22248921601567,172.19999694824219
-131.10795608672197,181.39999389648438
-129.99363771609387,184.60000610351563
-128.87953406149063,201.39999389648438
-127.76564508029878,217
-126.65197072989395,221
-125.53851096768085,233.19999694824219
-124.4252657510624,252.60000610351563
-123.31223503745423,264.60000610351563
-122.19941878428472,270.39999389648438
-121.08681694899133,281.20001220703125
-119.97442948901517,297.20001220703125
-118.8622563618228,323.79998779296875
-117.75029752487717,327.20001220703125
-116.63855293565393,356
-115.52702255164331,357.39999389648438
-114.41570633034462,368.79998779296875
-113.30460422925898,381.79998779296875
-112.19371620590573,404.39999389648438
-111.08304221782055,404.20001220703125
-109.97258222253549,441.60000610351563
-108.86233617759535,434.20001220703125
-107.75230404056492,462.79998779296875
-106.64248576901082,496.60000610351563
-105.53288132051239,506.20001220703125
-104.42349065265807,521.20001220703125
-103.31431372304178,552.4000244140625
-102.20535048927377,569.5999755859375
-101.09660090898069,603.20001220703125
-99.988064939780088,621.20001220703125
-98.879742539320432,659.79998779296875
-97.771633665246554,695
-96.6637382752142,745.79998779296875
-95.556056326899125,781
-94.448587777975263,817.20001220703125
-93.34133258613474,853.79998779296875
-92.234290709076959,913.79998779296875
-91.1274621045086,953.20001220703125
-90.020846730150879,988.5999755859375
-88.914444543732316,992.4000244140625
-87.808255502995962,998.79998779296875
-86.7022795656867,996
-85.596516689563941,1002.4000244140625
-84.490966832401682,982
-83.385629951977535,972.79998779296875
-82.280506006080032,960.20001220703125
-81.175594952508618,992.5999755859375
-80.070896749077292,1005.4000244140625
-78.966411353598232,1036
-77.862138723905446,1091.5999755859375
-76.7580788178384,1125.5999755859375
-75.654231593249278,1170
-74.550597007988472,1211.5999755859375
-73.447175019935457,1248
-72.3439655869679,1329.199951171875
-71.240968666974368,1367.4000244140625
-70.138184217854359,1432.800048828125
-69.035612197516457,1540
-67.933252563881979,1601.199951171875
-66.831105274881338,1644.800048828125
-65.7291702884504,1677.4000244140625
-64.62744756254142,1653
-63.525937055112081,1665.800048828125
-62.424638724134638,1682.800048828125
-61.323552527588618,1704.4000244140625
-60.222678423459,1724
-59.122016369747143,1777.199951171875
-58.02156632446713,1839.800048828125
-56.92132824563123,1903.4000244140625
-55.821302091271718,1937.5999755859375
-54.721487819426329,1919.800048828125
-53.621885388145529,1876.4000244140625
-52.522494755494336,1808.5999755859375
-51.423315879526854,1759.4000244140625
-50.324348718333567,1752.5999755859375
-49.225593230001323,1764.4000244140625
-48.12704937262788,1801.199951171875
-47.028717104320094,1935.800048828125
-45.930596383199372,2142
-44.832687167392578,2391.39990234375
-43.734989415037489,2647
-42.637503084284617,2900
-41.540228133289929,3132.199951171875
-40.443164520223945,3405.199951171875
-39.346312203260823,3858.39990234375
-38.249671140592909,4596.60009765625
-37.153241290412552,5471.7998046875
-36.057022610932108,6279.39990234375
-34.961015060369391,6711.2001953125
-33.865218596949489,6895.60009765625
-32.769633178906588,6740.2001953125
-31.6742587644967,6390
-30.579095311970377,5737.60009765625
-29.484142779594549,5130.2001953125
-28.389401125643417,4650
-27.29487030841301,4287.39990234375
-26.200550286193902,4081.800048828125
-25.106441017293037,3886.39990234375
-24.012542460020995,3744.199951171875
-22.918854572712007,3590
-21.82537731370212,3523.60009765625
-20.7321106413292,3486.800048828125
-19.639054513960218,3381.60009765625
-18.546208889949412,3245.800048828125
-17.453573727678304,3120.39990234375
-16.361148985530235,3098.60009765625
-15.268934621899461,3069.800048828125
-14.176930595191152,3011.199951171875
-13.085136863823209,3049
-11.993553386213534,3044.60009765625
-10.902180120801859,3095
-9.8110170260297309,3097.60009765625
-8.720064060353252,3039.199951171875
-7.62932118223398,2977.60009765625
-6.5387883501425677,2531
-5.448465522567858,1644.5999755859375
-4.3583526579986938,687.79998779296875
-3.2684497149384697,102.80000305175781
-2.1787566519033135,43
-1.0892734274111717,42.400001525878906
0,162
1.0890636717958841,773
2.1779176294185163,1717
3.266561914309932,2590.199951171875
4.354996567899434,2946.39990234375
5.443221631601773,3009.800048828125
6.5312371468298807,3101
7.6190431549803179,3114.800048828125
8.7066396974460076,3107.800048828125
9.7940268156035017,3126.60009765625
10.881204550825714,3115.800048828125
11.968172944472826,3147.199951171875
13.054932037890467,3193.39990234375
14.141481872427903,3264.800048828125
15.227822489416212,3376.800048828125
16.313953930162825,3472.60009765625
17.399876235997,3589.39990234375
18.485589448209794,3678.199951171875
19.571093608095907,3765.39990234375
20.656388756942761,3897.60009765625
21.74147493601231,4044.39990234375
22.826352186579243,4299.60009765625
23.911020549890964,4501.7998046875
24.995480067191238,4850
26.079730779716556,5346.2001953125
27.163772728685217,6049
28.247605955324616,6680.39990234375
29.331230500825768,7219.2001953125
30.414646406390602,7390.60009765625
31.49785371319922,7341.7998046875
32.58085246243354,6898.60009765625
33.663642695257295,6176
34.746224452830575,5182.39990234375
35.828597776289826,4349.39990234375
36.910762706780588,3797
37.992719285430212,3507.199951171875
39.074467553356953,3258.800048828125
40.156007551660878,3008.800048828125
41.237339321447507,2737
42.318462903804175,2445
43.39937833980548,2208.199951171875
44.48008567053148,2031
45.560584937029489,1945.199951171875
46.6408761803541,1946.199951171875
47.720959441552623,1969
48.80083476164873,2036.199951171875
49.880502181658812,2089.800048828125
50.9599617426029,2175.60009765625
52.039213485481014,2189.199951171875
53.118257451287718,2192.800048828125
54.197093680997568,2146.800048828125
55.275722215592396,2052.39990234375
56.354143096026746,2006.5999755859375
57.432356363258805,1968.4000244140625
58.510362058235842,1921.5999755859375
59.588160221886938,1929.800048828125
60.665750895142992,1912.199951171875
61.743134118913076,1947
62.820309934106263,1898.199951171875
63.89727838161707,1882.5999755859375
64.974039502334563,1829.4000244140625
66.050593337131431,1768.5999755859375
67.12693992687673,1674.800048828125
68.203079312430418,1593
69.2790115346379,1544.4000244140625
70.354736634337314,1451
71.43025465235587,1435
72.505565629522607,1370.4000244140625
73.580669606635638,1322.5999755859375
74.655566624502171,1274.199951171875
75.730256723907587,1234.800048828125
76.804739945639085,1238
77.879016330462036,1191.199951171875
78.953085919145451,1187.199951171875
80.026948752434691,1187.800048828125
81.10060487107512,1191.4000244140625
82.174054315803,1214.4000244140625
83.247297127336424,1217.800048828125
84.320333346397092,1230.800048828125
85.39316301368126,1238.199951171875
86.465786169887,1219
87.538202855701456,1199.5999755859375
88.610413111804519,1142
89.682416978852416,1088.800048828125
90.754214497510475,1036.800048828125
91.825805708424014,990.5999755859375
92.897190652229256,934.5999755859375
93.968369369558786,912
95.039341901027,848.4000244140625
96.110108287242838,820.4000244140625
97.180668568809779,774.5999755859375
98.251022786316753,763.5999755859375
99.321170980345414,701.5999755859375
100.39111319146468,697.4000244140625
101.46084946023984,662.4000244140625
102.53037982722162,627.79998779296875
103.59970433295166,612.79998779296875
104.66882301796431,589.79998779296875
105.73773592278485,565.20001220703125
106.8064430879258,549.20001220703125
107.87494455389424,532.5999755859375
108.94324036118269,513.5999755859375
110.01133055028004,493.39999389648438
111.07921516166243,486.79998779296875
112.1468942357933,473.79998779296875
113.21436781313787,452.39999389648438
114.28163593413956,432.39999389648438
115.3486986392345,413
116.41555596884973,401
117.48220796341775,382.20001220703125
118.54865466334195,364
119.61489610901845,352
120.68093234084154,332
121.74676339919642,330
122.81238932445376,306.20001220703125
123.87781015697874,273.39999389648438
124.94302593711836,279.60000610351563
126.00803670522509,259
127.07284250162593,260
128.13744336665695,237.80000305175781
129.20183934062334,231
130.26603046383752,231.39999389648438
131.33001677659377,209.80000305175781
132.3937983191845,207.39999389648438
133.4573751318876,182.80000305175781
134.52074725496641,184.39999389648438
135.58391472868425,185
136.6468775932899,163
137.70963588902487,153.60000610351563
138.77218965612155,165
139.83453893480146,149.19999694824219
140.89668376527698,146.39999389648438
141.95862418775323,148.19999694824219
143.02036024241897,141
144.0818919694666,135.19999694824219
145.14321940906302,137.80000305175781
146.20434260137881,124.80000305175781
147.26526158656816,140.19999694824219
148.32597640478161,124
149.38648709615154,137.19999694824219
150.4467937008103,132
151.50689625887571,123.40000152587891
152.5667948104583,127.80000305175781
153.62648939565406,129
154.68598005455897,121.40000152587891
155.74526682725445,117
156.8043497538074,113.40000152587891
157.86322887428469,115.80000305175781
158.9219042287441,102.80000305175781
159.98037585721977,101.59999847412109
161.03864379975494,88.800003051757813
162.096708096371,85.5999984741211
163.15456878708392,92
164.21222591190417,76.800003051757813
165.2696795108277,85.199996948242188
166.32692962384135,76.5999984741211
167.38397629092287,71.199996948242188
168.4408195520482,62.200000762939453
169.4974594471696,64.199996948242188
170.55389601624302,62.400001525878906
171.61012929921162,55.599998474121094
172.66615933600406,67.199996948242188
173.7219861665435,43.200000762939453
174.7776098307495,61.599998474121094
175.83303036851612,48.200000762939453
176.88824781974836,44.400001525878906
177.94326222432755,39
178.99807362213323,40.599998474121094
180.05268205302673,55.400001525878906
181.10708755687847,43.799999237060547
182.16129017352432,46.799999237060547
183.21528994280743,35.200000762939453
184.26908690456366,39.200000762939453
185.32268109860706,48.200000762939453
186.37607256475167,38.400001525878906
187.42926134280606,41.599998474121094
188.482247472557,44.599998474121094
189.53503099378759,36.200000762939453
190.58761194627914,41
191.63999036979294,35
192.692166304083,34.599998474121094
193.7441397888997,43.200000762939453
194.79591086397886,39.400001525878906
195.8474795690563,46.599998474121094
196.89884594384057,36.599998474121094
197.95001002804929,32.200000762939453
199.00097186138009,35.599998474121094
200.05173148352878,36.599998474121094
201.10228893417116,30.399999618530273
202.15264425298847,34.799999237060547
203.2027974796365,45
204.25274865377651,38
205.30249781504972,33.799999237060547
206.35204500309737,31.799999237060547
207.4013902575407,34.200000762939453
208.45053361800274,36.200000762939453
209.49947512409562,32
210.54821481540785,25.799999237060547
211.59675273154062,27.399999618530273
212.64508891206788,26
213.69322339656719,31.200000762939453
214.74115622459976,31.600000381469727
215.78888743571224,22.799999237060547
216.83641706946219,29.200000762939453
217.88374516537988,33.599998474121094
218.93087176298468,28.200000762939453
219.97779690180323,29
221.02452062133852,28.399999618530273
222.0710429610881,23.200000762939453
223.11736396054403,22.200000762939453
224.16348365918566,17
225.2094020964887,20
226.25511931190886,24.600000381469727
227.3006353449,26.399999618530273
228.34595023491056,25
229.39106402137622,21.799999237060547
230.43597674371449,18.200000762939453
231.48068844134468,18.600000381469727
232.52519915367702,18.200000762939453
233.569508920109,20.399999618530273
234.61361778002538,13.600000381469727
235.65752577281455,14
236.70123293784127,21.200000762939453
237.74473931446664,10.600000381469727
238.78804494204451,10
239.83114985991779,14.800000190734863
240.87405410742394,14
241.91675772388407,12.600000381469727
242.95926074861745,12
244.00156322093062,8.3999996185302734
245.04366518011921,9
246.08556666547338,8.6000003814697266
247.12726771627604,6.4000000953674316
248.16876837179188,7.4000000953674316
249.21006867128381,7.4000000953674316
250.25116865401105,9.1999998092651367
251.29206835920559,9.6000003814697266
252.33276782611392,6.4000000953674316
253.37326709395347,8
254.41356620194165,9.8000001907348633
255.45366518928495,4.8000001907348633
256.49356409518441,3
257.53326295883016,8.8000001907348633
258.57276181939596,7
259.61206071605739,9.6000003814697266
260.65115968797545,11.600000381469727
261.69005877429845,5
262.72875801417831,4.4000000953674316
263.76725744674513,3.4000000953674316
264.80555711111992,-1.7999999523162842
265.84365704643096,12.600000381469727
266.88155729177379,5.4000000953674316
267.91925788625122,2.5999999046325684
268.95675886895515,1.2000000476837158
269.99406027896839,6
271.03116215535192,3.2000000476837158
272.06806453717945,7.1999998092651367
273.10476746349923,-3.7999999523162842
274.14127097334858,6.1999998092651367
275.17757510577758,4.1999998092651367
276.21367989980354,-1
277.24958539444378,5.5999999046325684
278.28529162870836,4.5999999046325684
279.32079864159641,-5
280.35610647209614,-0.20000000298023224
281.39121515919214,2.2000000476837158
282.42612474185262,-1.3999999761581421
283.46083525904578,7.8000001907348633
284.49534674972347,-4.4000000953674316
285.52965925283388,3.7999999523162842
286.56377280730703,-0.20000000298023224
287.59768745207475,0.800000011920929
288.63140322605432,6
289.66492016815391,9.8000001907348633
290.6982383172799,0.60000002384185791
291.73135771231318,8.6000003814697266
292.76427839214739,4.8000001907348633
293.79700039564887,1.6000000238418579
294.82952376168032,4.4000000953674316
295.86184852910264,-7
296.89397473676581,-0.40000000596046448
297.92590242349979,3.5999999046325684
298.95763162813637,-3.5999999046325684
299.9891623894946,5.1999998092651367
301.02049474638625,-10.199999809265137
302.05162873761219,-3.5999999046325684
303.082564401966,3
304.1133017782322,8.1999998092651367
305.14384090518251,4
306.1741818215869,-6.1999998092651367
307.20432456620438,3.7999999523162842
308.23426917777579,1.6000000238418579
309.26401569504924,-4.8000001907348633
310.29356415674738,0.20000000298023224
311.32291460160013,3.5999999046325684
312.35206706831377,8.1999998092651367
313.38102159559276,-2.7999999523162842
314.40977822213063,11.600000381469727
315.43833698661547,7
316.46669792772627,15
317.49486108412748,16.200000762939453
318.52282649447989,8.8000001907348633
319.55059419743338,15.399999618530273
320.5781642316324,18.600000381469727
321.60553663570317,16.399999618530273
322.63271144827559,25.600000381469727
323.65968870795768,25
324.68646845335934,28
325.71305072307769,30.200000762939453
326.73943555570077,27.600000381469727
327.76562298980934,19.600000381469727
328.79161306396782,15.199999809265137
329.81740581674421,8.8000001907348633
330.84300128668838,14.399999618530273
331.86839951234651,5.8000001907348633
332.89360053224482,3.7999999523162842
333.9186043849204,9.6000003814697266
334.9434111088849,-2.7999999523162842
335.96802074264451,-2.5999999046325684
336.9924333247036,1.6000000238418579
338.016648893552,-3
339.04066748766672,0.20000000298023224
340.06448914552857,-2.2000000476837158
341.08811390559458,2.4000000953674316
342.11154180632184,-3
343.13477288616014,-4.8000001907348633
344.15780718354108,-5
345.1806447368981,-1
346.20328558465189,-3.4000000953674316
347.22572976520678,-5.5999999046325684
348.24797731697436,-8.8000001907348633
349.2700282783444,0.40000000596046448
350.29188268769758,-9.6000003814697266
351.3135405834164,-3.7999999523162842
352.3350020038597,-1.7999999523162842
353.35626698739179,-2.4000000953674316
354.37733557236061,-5.4000000953674316
355.39820779711044,-2.7999999523162842
356.41888369996741,-7.1999998092651367
357.43936331925579,2.2000000476837158
358.4596466932926,-1.6000000238418579
359.47973386038029,-2.4000000953674316
360.4996248588177,-5.4000000953674316
361.51931972688908,-1.7999999523162842
362.53881850287689,4
363.55812122505267,1.7999999523162842
364.57722793167341,-6
365.59613866099608,-4.5999999046325684
366.61485345126675,-7.5999999046325684
367.63337234071332,-11
368.65169536756548,-5.4000000953674316
369.66982257004383,-5.1999998092651367
370.68775398635444,-2.4000000953674316
371.70548965469789,-5.8000001907348633
372.7230296132675,-3.4000000953674316
373.74037390024205,-15.399999618530273
374.75752255379666,-9.1999998092651367
375.7744756120992,-3.2000000476837158
376.79123311330659,-4.8000001907348633
377.80779509556305,-0.800000011920929
378.82416159700733,-3.2000000476837158
379.84033265577273,-7.5999999046325684
380.856308309978,-0.40000000596046448
381.87208859774,-8.6000003814697266
382.88767355716118,-6.5999999046325684
383.90306322633296,-7.1999998092651367
384.918257643345,-8.1999998092651367
385.933256846276,0
386.94806087319375,-6.4000000953674316
387.96266976215884,-7.5999999046325684
388.97708355122268,-6.8000001907348633
389.99130227842943,-11.800000190734863
391.005325981816,-5.1999998092651367
392.01915469940104,-3.4000000953674316
393.03278846921057,-5
394.04622732924145,-5.4000000953674316
395.05947131750145,-6.1999998092651367
396.072520471982,-0.60000002384185791
397.08537483066175,-8.3999996185302734
398.09803443151395,-7
399.11049931250454,-5.4000000953674316
400.12276951158856,-6.4000000953674316
401.13484506671739,-3.4000000953674316
402.14672601582424,-3.2000000476837158
403.15841239684596,-4
404.16990424769574,-6
405.18120160629041,-1.6000000238418579
406.19230451053772,-16.600000381469727
407.20321299832722,-11.199999809265137
408.21392710754844,-4.1999998092651367
409.22444687608004,-3.2000000476837158
410.2347723417879,-1.6000000238418579
411.24490354253794,-7.5999999046325684
412.25484051617786,-6.1999998092651367
413.26458330055357,-3.7999999523162842
414.27413193350003,-0.800000011920929
415.28348645284314,0.60000002384185791
416.29264689639967,-1.7999999523162842
417.30161330197734,-2
418.310385707382,-4.5999999046325684
419.31896415039773,-2.4000000953674316
420.327348668814,-4.5999999046325684
421.33553930040034,-1.6000000238418579
422.34353608292622,-2.7999999523162842
423.35133905414659,-3.5999999046325684
424.35894825181094,-9.6000003814697266
425.366363713656,-3.7999999523162842
426.37358547742224,-7.5999999046325684
427.38061358082268,-1.6000000238418579
428.38744806157592,-1
429.39408895738779,-3.4000000953674316
430.40053630595321,-0.800000011920929
431.40679014495618,0.800000011920929
432.41285051209161,-6.8000001907348633
433.41871744501259,-5.8000001907348633
434.42439098139221,-3.4000000953674316
435.42987115888172,1.6000000238418579
436.43515801512694,-4.4000000953674316
437.4402515877664,-5.4000000953674316
438.44515191442224,-5.8000001907348633
439.44985903272209,-7.5999999046325684
440.45437298026809,-1.6000000238418579
441.45869379467149,-8.6000003814697266
442.4628215135217,-2.7999999523162842
443.46675617440451,-6.8000001907348633
444.47049781489659,-6.1999998092651367
445.47404647256735,-1.7999999523162842
446.47740218497347,-4.1999998092651367
447.480564989668,-1
448.483534924193,-4.8000001907348633
449.48631202608703,-6.8000001907348633
450.48889633286853,-5
451.49128788205962,3.5999999046325684
452.49348671116604,-10
453.49549285768262,3.2000000476837158
454.49730635911328,-2.2000000476837158
455.49892725292921,-9
456.50035557661067,-1.2000000476837158
457.50159136762159,-6.8000001907348633
458.50263466341676,-3.7999999523162842
459.503485501451,-8.1999998092651367
460.50414391915729,-1.6000000238418579
461.50460995397043,-9
462.5048836433125,-2
463.50496502460373,0
464.50485413524257,-8.1999998092651367
465.50455101262742,2.5999999046325684
466.50405569415489,-1.6000000238418579
467.50336821719429,5.1999998092651367
468.50248861912587,1.3999999761581421
469.50141693731166,1.6000000238418579
470.50015320910279,6.1999998092651367
471.49869747185039,-4.4000000953674316
472.49704976288922,2.5999999046325684
473.49521011955221,2.4000000953674316
474.49317857915776,-0.40000000596046448
475.49095517901515,-3
476.48853995643731,-2
477.48593294871353,-10.600000381469727
478.48313419313126,-4.4000000953674316
479.48014372697253,-4.4000000953674316
480.47696158750477,-0.40000000596046448
481.47358781198818,-5
482.47002243768111,4
483.46626550182373,-6.4000000953674316
484.46231704165621,1.7999999523162842
485.45817709440053,-4.4000000953674316
486.45384569728049,-3.7999999523162842
487.44932288750715,-5.1999998092651367
488.44460870228249,-7
489.43970317880303,-8
490.4346063542489,-1.6000000238418579
491.42931826580025,-0.800000011920929
492.4238389506263,1.7999999523162842
493.41816844588539,0.800000011920929
494.41230678873217,-10
495.40625401630859,-9.8000001907348633
496.40001016574752,-9.8000001907348633
497.39357527418179,-2.7999999523162842
498.3869493787206,-3.4000000953674316
499.3801325164859,-12.399999618530273
500.37312472456688,-3.4000000953674316
501.36592604006182,-6.8000001907348633
502.35853650005447,-1.2000000476837158
503.35095614162128,-3
504.34318500183144,-4.8000001907348633
505.33522311774323,-2.7999999523162842
506.32707052640581,-5.8000001907348633
507.3187272648629,-6.8000001907348633
508.31019337014914,-7.8000001907348633
509.30146887928822,1.2000000476837158
510.29255382930023,-4.4000000953674316
511.28344825719068,-6.1999998092651367
512.27415219996328,-2.5999999046325684
513.26466569460717,-7
514.25498877810969,-8.3999996185302734
515.24512148744543,-0.40000000596046448
516.23506385957626,-7.1999998092651367
517.22481593147131,-6.5999999046325684
518.214377740067,-5
519.20374932231425,-8.8000001907348633
520.19293071514585,-2.4000000953674316
521.18192195548909,-6.5999999046325684
522.17072308025308,-1
523.15933412635422,-4
524.14775513068525,-5.4000000953674316
525.13598613014619,0.60000002384185791
526.12402716160977,-2.4000000953674316
527.11187826196146,-6.8000001907348633
528.09953946806127,0.40000000596046448
529.08701081677282,-8.8000001907348633
530.07429234493793,-9.1999998092651367
531.06138408940751,-2.4000000953674316
532.048286087007,-0.40000000596046448
533.03499837456729,-3.7999999523162842
534.0215209889011,-4.1999998092651367
535.00785396682113,-2.5999999046325684
535.99399734512008,-1
536.97995116059792,-1.2000000476837158
537.965715450031,-0.40000000596046448
538.95129025019924,-11.399999618530273
539.93667559786809,1.2000000476837158
540.921871529792,-7.5999999046325684
541.90687808272924,-2.7999999523162842
542.89169529341052,-3.7999999523162842
543.87632319857767,2.5999999046325684
544.86076183495788,-9.6000003814697266
545.84501123925838,-2.2000000476837158
546.82907144819546,-5.8000001907348633
547.8129424984636,-2.5999999046325684
548.7966244267609,-4.5999999046325684
549.78011726976547,-5.4000000953674316
550.76342106415723,-1.7999999523162842
551.74653584660155,-1.3999999761581421
552.7294616537547,-10.600000381469727
553.71219852227114,-1.7999999523162842
554.69474648879077,-2.4000000953674316
555.677105589948,-4.8000001907348633
556.65927586237194,-2
557.64125734267327,-2.4000000953674316
558.62305006746465,-5.4000000953674316
559.604654073346,-1
560.58606939691163,-6.4000000953674316
561.56729607475063,-5.5999999046325684
562.54833414342647,-2.5999999046325684
563.5291836395154,3
564.50984459957726,-3
565.490317060161,-6.4000000953674316
566.4706010578102,-5
567.450696629061,3.2000000476837158
568.43060381044052,-0.40000000596046448
569.41032263846137,-0.20000000298023224
570.38985314963975,4
571.36919538047732,-0.800000011920929
572.348349367463,-3.2000000476837158
573.32731514708939,2.2000000476837158
574.30609275582538,-9.8000001907348633
575.28468223014534,-2
576.26308360651274,0
577.24129692136921,-10
578.219322211171,-2.4000000953674316
579.197159512345,-1.7999999523162842
580.17480886132762,0.60000002384185791
581.15227029453308,-6.4000000953674316
582.12954384837394,-3.5999999046325684
583.10662955925181,-4.8000001907348633
584.08352746356286,-4.1999998092651367
585.06023759769778,-6.4000000953674316
586.03675999802908,-2.7999999523162842
587.01309470092929,-5.8000001907348633
587.98924174276181,-6.5999999046325684
588.965201159881,-3.2000000476837158
589.940972988632,-6.1999998092651367
590.916557265351,-7.4000000953674316
591.89195402637051,-5.4000000953674316
592.86716330800846,-7.1999998092651367
593.84218514657914,-1.6000000238418579
594.81701957839141,-0.60000002384185791
595.79166663973774,-6.8000001907348633
596.76612636690516,0.60000002384185791
597.74039879617885,0.20000000298023224
598.71448396382948,-7
599.68838190611859,-3.7999999523162842
600.66209265930229,-0.60000002384185791
601.63561625963666,-1.2000000476837158
602.60895274334871,-5
603.58210214668,5.5999999046325684
604.55506450584653,-6
605.52783985706992,0.20000000298023224
606.50042823655167,-4
607.472829680497,4.4000000953674316
608.44504422508908,-5.8000001907348633
609.41707190651687,-10.800000190734863
610.38891276095092,2
611.36056682456,-2.4000000953674316
612.332034133502,-1.2000000476837158
613.3033147239239,-3.7999999523162842
614.2744086319708,-0.20000000298023224
615.24531589377693,-2.2000000476837158
616.216036545462,-2.2000000476837158
617.18657062315287,2.2000000476837158
618.15691816295475,-11.800000190734863
619.12707920096727,-1
620.09705377328282,-0.40000000596046448
621.06684191599379,-2.2000000476837158
622.03644366517074,-1
623.0058590568824,2.5999999046325684
623.97508812719207,-2
624.94413091215029,-10.600000381469727
625.912987447804,-2.5999999046325684
626.88165777019094,-5.4000000953674316
627.85014191533446,-4.5999999046325684
628.81843991925962,-2.2000000476837158
629.78655181797694,-4.8000001907348633
630.75447764748969,3.2000000476837158
631.72221744379385,-3
632.68977124288176,-3.4000000953674316
633.65713908072576,-6.5999999046325684
634.62432099330545,-1.3999999761581421
635.59131701657861,-4.1999998092651367
636.55812718650486,-5
637.52475153902742,2.2000000476837158
638.49119011009134,-0.60000002384185791
639.45744293562529,-10.800000190734863
640.42351005155251,2.7999999523162842
641.38939149379257,2
642.355087298245,-5.8000001907348633
643.32059750081135,-2.7999999523162842
644.28592213738557,-7.1999998092651367
645.25106124385456,-4.5999999046325684
646.216014856087,-9.8000001907348633
647.18078300994785,-10.600000381469727
648.1453657413058,-6.4000000953674316
649.10976308600038,3.5999999046325684
650.07397507988208,-5.8000001907348633
651.03800175878678,-11.800000190734863
652.00184315853767,-4.4000000953674316
652.96549931495247,-4.5999999046325684
653.92897026384526,-2.7999999523162842
654.89225604101739,-8
655.85535668226476,-5.5999999046325684
656.81827222337415,-3.2000000476837158
657.78100270012328,-6
658.74354814828257,1.6000000238418579
659.70590860361335,-10
660.66808410187514,-7.1999998092651367
661.63007467881289,1
662.59188037016247,-4.1999998092651367
663.55350121165611,-3
664.514937239017,-3.2000000476837158
665.47618848796083,-3.7999999523162842
666.4372549941927,-8.1999998092651367
667.39813679341023,-3
668.35883392130745,0.800000011920929
669.31934641356565,-19.399999618530273
670.27967430585886,-4.1999998092651367
671.23981763385382,-8.1999998092651367
672.19977643321,-5.5999999046325684
673.15955073957775,2.4000000953674316
674.119140588602,-2.2000000476837158
675.07854601591134,-6.1999998092651367
676.03776705714154,-1.2000000476837158
676.99680374790478,-10
677.95565612381506,1.3999999761581421
678.91432422047183,-4.5999999046325684
679.87280807347634,-4.8000001907348633
680.83110771841166,-5.1999998092651367
681.78922319085541,-5
682.74715452638156,-5.4000000953674316
683.70490176055318,-11
684.66246492892424,-1.3999999761581421
