-777.87311982425126,5.1999998092651367
-776.63374739947358,4.9000000953674316
-775.39461482227671,3.7999999523162842
-774.15572204389719,2.5
-772.91706901559337,5.5999999046325684
-771.67865568863454,8.1000003814697266
-770.44048201429,-1.8999999761581421
-769.20254794384346,5
-767.96485342860433,6.9000000953674316
-766.7273984198855,12.600000381469727
-765.49018286900719,-1.2999999523162842
-764.25320672730777,5.8000001907348633
-763.01646994613657,4.8000001907348633
-761.77997247685744,10.5
-760.5437142708488,2.4000000953674316
-759.307695279489,6.5
-758.07191545417118,-3
-756.83637474631723,8.8000001907348633
-755.601073107342,16.600000381469727
-754.36601048868215,-7.8000001907348633
-753.13118684178153,1.3999999761581421
-751.89660211810587,8.1999998092651367
-750.66225626912092,8.1999998092651367
-749.42814924630693,0.699999988079071
-748.19428100116238,13.699999809265137
-746.960651485193,0.800000011920929
-745.72726064991912,13.800000190734863
-744.49410844686827,7.1999998092651367
-743.26119482758622,-4.5999999046325684
-742.02851974362966,7
-740.79608314656616,13.199999809265137
-739.5638849879706,-1.1000000238418579
-738.331925219436,2.0999999046325684
-737.10020379257367,5.8000001907348633
-735.86872065898388,10.5
-734.63747577031063,5.4000000953674316
-733.406469078187,7
-732.17570053426061,3
-730.94517009020092,13.399999618530273
-729.71487769768464,11.5
-728.48482330838851,3.5999999046325684
-727.25500687402564,-3
-726.02542834630549,8
-724.79608767694481,7.0999999046325684
-723.56698481768581,-0.5
-722.33811972027434,4.6999998092651367
-721.10949233647079,2
-719.88110261805014,3.4000000953674316
-718.652950516791,11.800000190734863
-717.42503598449366,0.40000000596046448
-716.19735897296232,9.1999998092651367
-714.96991943401918,-0.20000000298023224
-713.74271731949739,3.0999999046325684
-712.515752581241,8.8000001907348633
-711.28902517110146,1.3999999761581421
-710.06253504095184,6
-708.83628214267264,6.3000001907348633
-707.610266428148,4.5
-706.384487849291,10.300000190734863
-705.15894635801124,5.0999999046325684
-703.93364190623652,6.5
-702.70857444590911,-3.2000000476837158
-701.48374392898586,-0.5
-700.25915030741635,10
-699.03479353318289,-2.5
-697.81067355827872,5.1999998092651367
-696.58679033470071,-2.2000000476837158
-695.36314381444936,13.100000381469727
-694.1397339495652,1
-692.91656069207056,11.100000381469727
-691.69362399401689,2.9000000953674316
-690.47092380745926,9.3999996185302734
-689.24846008447821,8.6999998092651367
-688.02623277714338,1.6000000238418579
-686.80424183756077,-5.9000000953674316
-685.58248721782911,-0.5
-684.360968870069,-2.7000000476837158
-683.13968674641546,-4.8000001907348633
-681.91864079900733,12.300000190734863
-680.69783097999425,2.4000000953674316
-679.4772572415477,2.2999999523162842
-678.25691953584283,5
-677.0368178150693,6.8000001907348633
-675.81695203143136,6.1999998092651367
-674.59732213714051,9.6999998092651367
-673.37792808442282,-2.7999999523162842
-672.15876982551163,-0.20000000298023224
-670.9398473126621,9.3000001907348633
-669.72116049812939,1.8999999761581421
-668.50270933419051,0
-667.28449377312245,11.699999809265137
-666.0665137672313,-3.4000000953674316
-664.84876926881952,2.0999999046325684
-663.63126023020413,6.0999999046325684
-662.413986603724,-3.2000000476837158
-661.19694834172151,13.300000190734863
-659.9801453965465,-0.800000011920929
-658.76357772057054,2.2000000476837158
-657.54724526617247,5.6999998092651367
-656.33114798573843,7.0999999046325684
-655.11528583168,0.5
-653.89965875640155,5.0999999046325684
-652.68426671233283,6.0999999046325684
-651.46910965191455,0.699999988079071
-650.25418752759469,7.3000001907348633
-649.03950029183216,-7.3000001907348633
-647.825047897104,1.2000000476837158
-646.61083029589463,3.0999999046325684
-645.39684744069928,2.2000000476837158
-644.18309928402778,7.8000001907348633
-642.96958577839359,7.8000001907348633
-641.75630687633929,10.600000381469727
-640.54326253040745,3.4000000953674316
-639.33045269314425,1.2000000476837158
-638.117877317125,7.1999998092651367
-636.90553635492142,-5.8000001907348633
-635.69342975913059,3.2999999523162842
-634.481557482357,5.0999999046325684
-633.26991947720853,0.40000000596046448
-632.05851569631523,13.800000190734863
-630.84734609231418,8.3999996185302734
-629.63641061784983,-3.7999999523162842
-628.4257092255848,-3.5
-627.21524186819988,10.5
-626.00500849836862,2.2000000476837158
-624.79500906879366,-1.2000000476837158
-623.58524353217763,-1.2999999523162842
-622.37571184124863,-4.1999998092651367
-621.1664139487275,3.0999999046325684
-619.95734980736415,4.8000001907348633
-618.74851936991581,4.0999999046325684
-617.539922589136,-1.2000000476837158
-616.33155941781479,7.5999999046325684
-615.12342980873473,10.699999809265137
-613.91553371470036,2.7999999523162842
-612.70787108852346,3.0999999046325684
-611.50044188302672,16.200000762939453
-610.29324605104739,3.0999999046325684
-609.08628354543725,-10.800000190734863
-607.87955431905175,6.4000000953674316
-606.67305832475722,0.20000000298023224
-605.46679551544912,4
-604.26076584400835,6.5999999046325684
-603.05496926335218,3.9000000953674316
-601.849405726387,-8.1999998092651367
-600.64407518604821,11.300000190734863
-599.438977595275,0.40000000596046448
-598.234112907021,0.5
-597.02948107425073,12.399999618530273
-595.82508204993974,2.5
-594.62091578707441,-9.8999996185302734
-593.41698223864842,12.899999618530273
-592.21328135768454,2.0999999046325684
-591.009813097191,-0.60000002384185791
-589.80657741020877,8.6999998092651367
-588.60357424978247,0.40000000596046448
-587.4008035689676,-9.3999996185302734
-586.19826532083425,-9.6999998092651367
-584.99595945845977,1.2999999523162842
-583.793885934936,0.5
-582.5920447033659,-6.5
-581.39043571686307,7.4000000953674316
-580.18905892855764,9.3000001907348633
-578.98791429158518,7.3000001907348633
-577.78700175909034,-3.9000000953674316
-576.58632128423778,7.8000001907348633
-575.38587282020308,0.5
-574.1856563201618,-2
-572.98567173731681,9.1000003814697266
-571.78591902487278,10.199999809265137
-570.58639813603986,3.5999999046325684
-569.38710902406274,5.1999998092651367
-568.18805164217156,-6.5
-566.98922594362557,-8.3999996185302734
-565.790631881684,0.89999997615814209
-564.59226940962253,2.7999999523162842
-563.39413848073127,3.0999999046325684
-562.19623904831133,-6.1999998092651367
-560.99857106566742,3.5999999046325684
-559.80113448612792,8.8999996185302734
-558.60392926301938,-0.60000002384185791
-557.40695534968654,-1.7000000476837158
-556.21021269949415,5.9000000953674316
-555.0137012658015,4.6999998092651367
-553.81742100199153,-5.1999998092651367
-552.62137186145628,4.9000000953674316
-551.4255537975896,2.2000000476837158
-550.22996676381626,1.7000000476837158
-549.03461071355377,2.4000000953674316
-547.8394856002451,4.8000001907348633
-546.64459137733138,0
-545.449927998272,-5.3000001907348633
-544.25549541654073,18.5
-543.06129358562066,-7.6999998092651367
-541.86732245900566,-2.2000000476837158
-540.67358199019873,-5.3000001907348633
-539.48007213271376,13.899999618530273
-538.28679284007922,3.0999999046325684
-537.09374406584539,4.0999999046325684
-535.900925763548,3.5
-534.70833788675736,5.3000001907348633
-533.51598038904558,4.5999999046325684
-532.32385322399932,-1.8999999761581421
-531.13195634520889,7.4000000953674316
-529.94028970629006,4.0999999046325684
-528.74885326085314,1.7999999523162842
-527.55764696253573,-3.4000000953674316
-526.36667076497724,4.1999998092651367
-525.17592462183165,6.6999998092651367
-523.985408486762,0
-522.79512231344415,8.1999998092651367
-521.60506605556839,0.20000000298023224
-520.41523966682871,3.5999999046325684
-519.22564310093912,8.6000003814697266
-518.0362763116209,0.10000000149011612
-516.84713925260257,-1.6000000238418579
-515.65823187763453,-7.4000000953674316
-514.46955414046715,3.7999999523162842
-513.28110599486718,-4.6999998092651367
-512.09288739461954,-3.7000000476837158
-510.90489829350736,-5.3000001907348633
-509.71713864533194,-0.60000002384185791
-508.52960840390369,-3.5
-507.3423075230512,0.89999997615814209
-506.15523595660488,-4.8000001907348633
-504.96839365841697,-0.40000000596046448
-503.78178058233607,-6.8000001907348633
-502.59539668223624,0.60000002384185791
-501.4092419119952,2
-500.223316225507,1.5
-499.0376195766712,3.5
-497.85215191940188,1.7999999523162842
-496.666913207624,8.1000003814697266
-495.48190339527719,0.800000011920929
-494.29712243630638,-5.6999998092651367
-493.11257028467116,-3.7999999523162842
-491.928246894342,0.5
-490.7441522193003,0.699999988079071
-489.56028621353471,5.4000000953674316
-488.37664883105754,2.2000000476837158
-487.19324002587746,-5.5999999046325684
-486.01005975202315,6.5
-484.8271079635324,-0.5
-483.6443846144557,-0.699999988079071
-482.46188965885085,4.9000000953674316
-481.27962305079018,-3.2000000476837158
-480.09758474435512,-4.6999998092651367
-478.91577469364165,-7.4000000953674316
-477.73419285275304,-3.2999999523162842
-476.55283917580709,-7.4000000953674316
-475.37171361693436,2.7999999523162842
-474.19081613026719,1.6000000238418579
-473.010146669958,4
-471.82970519017181,1.7999999523162842
-470.64949164507379,-5
-469.46950598885633,6.5
-468.28974817570452,-12.100000381469727
-467.1102181598344,-3.4000000953674316
-465.93091589545475,-1.2999999523162842
-464.75184133679977,-1
-463.57299443810552,-0.30000001192092896
-462.39437515362624,-5.3000001907348633
-461.2159834376198,-2.0999999046325684
-460.03781924436043,-6.5999999046325684
-458.85988252813513,-3.7999999523162842
-457.68217324323632,12.100000381469727
-456.50469134396917,-10.5
-455.32743678465886,-12.100000381469727
-454.15040951962692,-1.3999999761581421
-452.97360950321672,-1.7000000476837158
-451.79703668977709,-3.5999999046325684
-450.62069103367321,-5
-449.4445724892721,-1
-448.26868101096989,-4.1999998092651367
-447.09301655315357,2.7000000476837158
-445.9175790702302,6.5999999046325684
-444.74236851661954,-5.3000001907348633
-443.56738484675407,-2.2000000476837158
-442.39262801506811,-1.2999999523162842
-441.21809797601236,-1.8999999761581421
-440.0437946840575,-4.3000001907348633
-438.86971809366878,-2.5999999046325684
-437.69586815933872,-5.3000001907348633
-436.52224483555256,-7
-435.34884807682647,2.7000000476837158
-434.17567783767481,2
-433.00273407262466,-0.699999988079071
-431.83001673621948,-1.7000000476837158
-430.65752578300453,-5.5999999046325684
-429.4852611675542,4.8000001907348633
-428.31322284443013,-1.6000000238418579
-427.14141076821943,0.20000000298023224
-425.96982489351649,9.6999998092651367
-424.79846517493388,0.800000011920929
-423.62733156708055,4.5999999046325684
-422.45642402459453,-3
-421.28574250211022,-7.6999998092651367
-420.1152869542766,2.4000000953674316
-418.94505733575534,-19.100000381469727
-417.77505360122632,-2.5999999046325684
-416.60527570536397,-6
-415.43572360287,-4.9000000953674316
-414.26639724844608,-8.1999998092651367
-413.09729659681216,1.7999999523162842
-411.92842160268992,1.3999999761581421
-410.7597722208302,-10.199999809265137
-409.59134840596926,-8.5
-408.42315011287792,-1
-407.2551772963252,4.5999999046325684
-406.087429911091,-0.89999997615814209
-404.9199079119735,-9.5
-403.75261125377619,6.3000001907348633
-402.58553989131542,-4.3000001907348633
-401.41869377941293,-10.199999809265137
-400.25207287291232,-4
-399.08567712666627,-7.5999999046325684
-397.919506495522,-9.5
-396.75356093436312,-7.1999998092651367
-395.58784039806596,5
-394.42234484151959,-14.300000190734863
-393.25707421963307,-6.9000000953674316
-392.09202848732275,-10
-390.92720759950862,-0.10000000149011612
-389.76261151112521,-0.89999997615814209
-388.59824017713072,-5.8000001907348633
-387.43409355247422,-14.600000381469727
-386.27017159212846,2.2999999523162842
-385.10647425107527,-2.2000000476837158
-383.94300148430193,2.5
-382.77975324681393,-17.399999618530273
-381.616729493624,-3
-380.453930179754,-6.0999999046325684
-379.29135526024038,-9.6999998092651367
-378.129004690134,0
-376.96687842448227,-4
-375.80497641835791,-9.6000003814697266
-374.64329862683917,-9.6999998092651367
-373.4818450050152,-0.30000001192092896
-372.32061550798426,-8.1000003814697266
-371.15961009086277,-4.4000000953674316
-369.99882870877082,-10.699999809265137
-368.83827131683756,0.89999997615814209
-367.677937870214,-5.5999999046325684
-366.51782832404751,-11.5
-365.3579426335109,-6.5
-364.19828075377518,0.30000001192092896
-363.03884264003136,-4.5
-361.87962824747046,-11
-360.7206375313126,-7.9000000953674316
-359.56187044677063,-2.2000000476837158
-358.403326949081,-9.1000003814697266
-357.24500699348027,8.8999996185302734
-356.08691053522307,-2.5
-354.92903752956954,-13.600000381469727
-353.771387931798,4.0999999046325684
-352.61396169719228,-8.6999998092651367
-351.45675878105067,-13.399999618530273
-350.29977913867333,-14.600000381469727
-349.14302272538407,-0.60000002384185791
-347.98648949651215,-4
-346.83017940739046,12.199999809265137
-345.67409241337191,2.0999999046325684
-344.51822846982031,-11
-343.36258753210313,1.2000000476837158
-342.20716955560965,-1.2999999523162842
-341.05197449572188,1.3999999761581421
-339.89700230785638,-5.5
-338.74225294741518,-7
-337.58772636983667,5
-336.43342253054652,-6.1999998092651367
-335.27934138499768,-3.7999999523162842
-334.12548288865037,10.300000190734863
-332.97184699696481,-12.5
-331.81843366542853,-10.399999618530273
-330.66524284953266,-3
-329.51227450476654,4.6999998092651367
-328.35952858665769,-14.600000381469727
-327.20700505071909,-8.3999996185302734
-326.05470385248555,-4.3000001907348633
-324.90262494750459,-4
-323.75076829132558,-1.7999999523162842
-322.59913383951789,6.4000000953674316
-321.44772154765633,-4.0999999046325684
-320.29653137132846,-24.399999618530273
-319.14556326613092,-1.8999999761581421
-317.99481718767311,-7.1999998092651367
-316.84429309157531,-3.2999999523162842
-315.69399093346874,-2.7999999523162842
-314.54391066899007,-4.5
-313.39405225379596,-6.8000001907348633
-312.24441564354129,-7.8000001907348633
-311.09500079390455,-14.100000381469727
-309.94580766056788,-14.300000190734863
-308.79683619922253,-9.1999998092651367
-307.64808636558337,6
-306.49955811535619,-9.3000001907348633
-305.35125140426862,-17.100000381469727
-304.203166188061,-15.600000381469727
-303.05530242247733,0.20000000298023224
-301.90766006327794,-13.600000381469727
-300.76023906623413,-8.6000003814697266
-299.61303938712081,-3.5999999046325684
-298.46606098173288,-8.3999996185302734
-297.31930380586527,-3.7000000476837158
-296.17276781533837,-17.899999618530273
-295.02645296596893,-3.7999999523162842
-293.88035921359551,-5.0999999046325684
-292.73448651404942,-1.6000000238418579
-291.58883482319834,-10.800000190734863
-290.44340409690449,-6.6999998092651367
-289.29819429103554,-9.6999998092651367
-288.15320536148647,-3.7000000476837158
-287.0084372641486,-15.600000381469727
-285.86388995493689,-4
-284.7195633897627,-4.5999999046325684
-283.57545752455371,-5.8000001907348633
-282.431572315254,-10.699999809265137
-281.28790771781496,-2
-280.1444636881879,-1.3999999761581421
-279.00124018235692,0.40000000596046448
-277.8582371562934,-3.5999999046325684
-276.71545456599597,-13.600000381469727
-275.57289236746692,-7.1999998092651367
-274.43055051671945,-12.600000381469727
-273.28842896977221,-0.40000000596046448
-272.14652768267115,2.0999999046325684
-271.00484661145128,-15.699999809265137
-269.86338571217493,-2.0999999046325684
-268.72214494090622,-3.9000000953674316
-267.581124253722,-14.899999618530273
-266.44032360671372,-11.699999809265137
-265.29974295597458,-7.3000001907348633
-264.159382257616,-5
-263.01924146776037,-6.3000001907348633
-261.87932054252815,-6.3000001907348633
-260.73961943807444,-7.0999999046325684
-259.60013811053796,22
-258.46087651608468,-4.5999999046325684
-257.32183461088971,-1.5
-256.18301235113358,4.8000001907348633
-255.04440969300595,2.4000000953674316
-253.90602659271462,9.6999998092651367
-252.76786300647473,-3.5999999046325684
-251.62991889051045,2.7000000476837158
-250.49219420105146,-9.8000001907348633
-249.35468889435288,-7.0999999046325684
-248.217402926668,2.0999999046325684
-247.08033625425924,-15.100000381469727
-245.94348883341445,-10.300000190734863
-244.80686062040877,-18.799999237060547
-243.67045157154826,-2.2999999523162842
-242.53426164314442,4.1999998092651367
-241.39829079150877,-16.100000381469727
-240.26253897297829,-2.5
-239.12700614388814,4.9000000953674316
-237.99169226059348,-1
-236.85659727945676,-4.8000001907348633
-235.72172115684771,2.2000000476837158
-234.58706384914331,-3.5999999046325684
-233.4526253127442,6.9000000953674316
-232.31840550405468,4.6999998092651367
-231.18440437947902,-0.20000000298023224
-230.05062189545242,-7.6999998092651367
-228.91705800840282,3.2000000476837158
-227.78371267477996,4.3000001907348633
-226.65058585103725,3.5
-225.51767749363898,-6
-224.38498755906403,-2
-223.2525160037967,-1.3999999761581421
-222.1202627843395,14.699999809265137
-220.98822785719858,4.5999999046325684
-219.85641117888918,14.899999618530273
-218.7248127059429,9.3999996185302734
-217.59343239489681,-0.5
-216.46227020230072,6.5
-215.3313260847226,2.5
-214.20059999872137,4.9000000953674316
-213.07009190087956,8.1000003814697266
-211.9398017477979,5.1999998092651367
-210.80972949606621,-1.8999999761581421
-209.67987510230523,3
-208.5502385231357,5.3000001907348633
-207.42081971518564,0.699999988079071
-206.29161863510308,-4.4000000953674316
-205.16263523954149,-0.89999997615814209
-204.03386948516163,7.3000001907348633
-202.90532132864428,5.0999999046325684
-201.77699072666474,12.899999618530273
-200.64887763592742,0.5
-199.52098201313311,5.5999999046325684
-198.39330381500076,1.1000000238418579
-197.26584299825117,4.3000001907348633
-196.13859951962695,3.5
-195.01157333587253,-7.4000000953674316
-193.88476440374143,4.6999998092651367
-192.75817268001083,1.3999999761581421
-191.63179812144881,-5.0999999046325684
-190.50564068485255,5.1999998092651367
-189.3797003270156,7.8000001907348633
-188.25397700474423,2.7999999523162842
-187.12847067486291,-1.5
-186.00318129420339,0.60000002384185791
-184.87810881960104,0.10000000149011612
-183.75325320790944,2.4000000953674316
-182.62861441598398,15.699999809265137
-181.50419240070187,3.0999999046325684
-180.37998711894033,8.8999996185302734
-179.25599852759296,0.60000002384185791
-178.13222658356062,25.799999237060547
-177.00867124376236,12.399999618530273
-175.88533246510815,18
-174.76221020454068,37.099998474121094
-173.63930441900084,36.200000762939453
-172.51661506544224,40.799999237060547
-171.39414210082759,52.400001525878906
-170.27188548212871,69.4000015258789
-169.14984516633558,69.0999984741211
-168.02802111043638,88.4000015258789
-166.90641327144112,94.5
-165.78502160636344,83.699996948242188
-164.66384607223154,72.9000015258789
-163.54288662607541,69.5999984741211
-162.4221432249451,63.599998474121094
-161.30161582589426,47.200000762939453
-160.18130438598928,49.299999237060547
-159.06120886230929,31.5
-157.94132921194432,37.099998474121094
-156.82166539198624,37.599998474121094
-155.70221735953965,32
-154.58298507173095,39.900001525878906
-153.46396848568111,33.5
-152.34516755853474,42.400001525878906
-151.22658224743282,31.799999237060547
-150.10821250953813,39.900001525878906
-148.99005830202077,39.099998474121094
-147.87211958205626,37.099998474121094
-146.75439630683832,48.900001525878906
-145.63688843355885,51.299999237060547
-144.51959591943705,44.200000762939453
-143.40251872168847,48.599998474121094
-142.28565679753956,57
-141.16901010423499,57.099998474121094
-140.05257859902849,67.5999984741211
-138.93636223917383,65.300003051757813
-137.82036098194294,70
-136.70457478462595,76.9000015258789
-135.58900360449843,82.0999984741211
-134.47364739887416,88.300003051757813
-133.35850612506329,83.5999984741211
-132.24357974038321,102.09999847412109
-131.12886820217136,106.90000152587891
-130.01437146776334,115.30000305175781
-128.90008949451476,120.80000305175781
-127.78602223979033,138.10000610351563
-126.67216966095839,121
-125.55853171540366,138.10000610351563
-124.44510836051813,157.69999694824219
-123.33189955371017,153.10000610351563
-122.2189052523845,150.80000305175781
-121.10612541397313,173.39999389648438
-119.9935599959008,174.39999389648438
-118.88120895561769,183.60000610351563
-117.76907225057403,176.60000610351563
-116.65714983823818,190
-115.54544167607855,183.60000610351563
-114.43394772158354,195.19999694824219
-113.32266793224335,180.5
-112.21160226556458,208.10000610351563
-111.10075067906291,224.80000305175781
-109.99011313026131,223.60000610351563
-108.87968957669545,221.5
-107.76947997590833,261.29998779296875
-106.65948428545926,241.5
-105.54970246290759,248.19999694824219
-104.44013446582903,262.89999389648438
-103.33078025181567,265
-102.22163977845048,272.70001220703125
-101.11271300335284,287.60000610351563
-100.00399988412755,297.5
-98.8955003784049,357.10000610351563
-97.787214443818812,444.39999389648438
-96.679142038015925,512.5
-95.571283118651991,505
-94.46363764339003,479.60000610351563
-93.356205569909434,359.20001220703125
-92.248986855895055,307.70001220703125
-91.141981459042654,312.60000610351563
-90.035189337055272,340.70001220703125
-88.928610447654137,354.39999389648438
-87.8222447485623,339.39999389648438
-86.716092197515536,336
-85.610152752264185,330.5
-84.504426370558576,339.39999389648438
-83.3989130101636,361.79998779296875
-82.29361262886232,406
-81.188525184439641,459.39999389648438
-80.083650634691367,563.29998779296875
-78.978988937416943,710.9000244140625
-77.8745400504431,894.29998779296875
-76.7703039315893,1005.9000244140625
-75.666280538693172,1047.199951171875
-74.56246982959965,922.79998779296875
-73.45887176217002,754.4000244140625
-72.355486294265575,595
-71.2523133837658,504.5
-70.149352988557439,449.10000610351563
-69.046605066534539,441.79998779296875
-67.944069575602043,436.29998779296875
-66.84174647367945,436
-65.739635718693535,440.60000610351563
-64.63773726857471,438.10000610351563
-63.5360510812734,446.89999389648438
-62.434577114750937,436.70001220703125
-61.3333153269632,506.5
-60.232265675895178,614.20001220703125
-59.131428119522752,875.20001220703125
-58.030802615854554,1337.800048828125
-56.930389122886481,1720
-55.830187598636257,1901.699951171875
-54.730198001132521,1794
-53.630420288413006,1416.5
-52.530854418515446,1066.5999755859375
-51.431500349504859,915.4000244140625
-50.332358039440805,1010.4000244140625
-49.233427446402857,1297.5999755859375
-48.134708528470583,1581.4000244140625
-47.036201243741743,2085.39990234375
-45.937905550323194,3050.199951171875
-44.839821406334522,4547.10009765625
-43.74194876988804,6060.5
-42.64428759913244,7196.10009765625
-41.5468378522055,6941.39990234375
-40.449599487265004,6217.7001953125
-39.352572462472381,5307.60009765625
-38.255756736005424,4277.39990234375
-37.159152266047386,3238.10009765625
-36.062759010790614,2088.10009765625
-34.966576928443828,1598.5
-33.8706059772212,2003.5999755859375
-32.774846115338732,4572.7998046875
-31.679297301039696,8000.5
-30.583959492563736,9227.7998046875
-29.488832648166863,9200
-28.393916726110547,5845.7001953125
-27.299211684672628,2505.5
-26.204717482129126,1713.5999755859375
-25.110434076774254,1478.300048828125
-24.016361426916774,1546.4000244140625
-22.922499490865448,1440.0999755859375
-21.828848226945411,1388.5
-20.735407593489072,1211.699951171875
-19.642177548834297,944.5999755859375
-18.549158051340783,888.5
-17.456349059368222,896.20001220703125
-16.363750531281767,909.20001220703125
-15.271362425470215,956.5999755859375
-14.179184700326005,953.4000244140625
-13.087217314247027,983.29998779296875
-11.995460225642091,1009.7000122070313
-10.903913392940012,1043.300048828125
-9.8125767745696066,1049.5
-8.7214503289651475,1121.199951171875
-7.6305340145827358,1145.9000244140625
-6.5398277898821107,1163.800048828125
-5.4493316133357439,1034.9000244140625
-4.3590454434179264,746.20001220703125
-3.26896923861932,444.60000610351563
-2.1791029574433196,493.60000610351563
-1.0894465583987767,538.5999755859375
-3.637978807091713E-12,424.20001220703125
1.0892367592168739,568.20001220703125
2.1782637607157085,401
3.2670810459494533,677.0999755859375
4.3556886563619628,1028.5
5.4440866333861777,1205.4000244140625
6.5322750184368488,1242.699951171875
7.6202538529305457,1222.5
8.7080231782692863,1204.300048828125
9.7955830358478124,1172.800048828125
10.882933467048133,1129.800048828125
11.970074513241343,1136.5
13.0570062157949,1132.4000244140625
14.143728616063527,1120.0999755859375
15.230241755389216,1093.699951171875
16.316545675103043,1119.300048828125
17.402640416532449,1103.0999755859375
18.488526020995778,1117.199951171875
19.574202529791364,1378.199951171875
20.659669984221182,1617
21.744928425567196,1811.699951171875
22.82997789510955,1961
23.914818434106564,1844.5
24.99945008382565,1998.9000244140625
26.083872885503297,2724.300048828125
27.168086880381452,5479.10009765625
28.252092109691148,10554.2001953125
29.33588861464159,12414.5
30.419476436449258,12406.099609375
31.502855616305169,8966.099609375
32.586026195402155,3605.39990234375
33.668988214920319,2331.199951171875
34.751741716028846,2562.199951171875
35.834286739884192,3818.699951171875
36.916623327637353,5446.10009765625
37.998751520428414,7095.7001953125
39.080671359392,8799.7001953125
40.162382885640909,10070
41.243886140291579,11155.400390625
42.325181164447713,10767.900390625
43.406267999200281,8892.5
44.4871466856257,6468.10009765625
45.5678172648004,4077.5
46.648279777786229,3042.60009765625
47.72853426563961,2571.300048828125
48.8085807694024,2007.199951171875
49.888419330107354,1630.4000244140625
50.968049988779967,1605.4000244140625
52.047472786436629,2054.300048828125
53.126687764075541,2737.10009765625
54.205694962698544,3399.60009765625
55.284494423289289,3507.60009765625
56.363086186827786,3163.39990234375
57.44147029427404,2284.60009765625
58.519646786589874,1520.4000244140625
59.597615704718919,1126
60.67537708960117,942.79998779296875
61.752930982163889,877
62.83027742332888,877.79998779296875
63.90741645399612,869.4000244140625
64.984348115074681,877.5999755859375
66.061072447448169,920.9000244140625
67.13758949199655,915.0999755859375
68.213899289597975,905.4000244140625
69.29000188109967,980.20001220703125
70.36589730736705,1079.300048828125
71.441585609234608,1247.199951171875
72.517066827535018,1606.5999755859375
73.592341003088222,1997.699951171875
74.667408176715981,2294.699951171875
75.742268389207311,2349.5
76.816921681369422,2110.300048828125
77.891368093980418,1722.5999755859375
78.965607667816585,1383
80.039640443639655,1142.5999755859375
81.113466462209544,1030.0999755859375
82.187085764271615,907.79998779296875
83.260498390560315,861.20001220703125
84.333704381804637,852.79998779296875
85.40670377871902,882
86.479496622014267,891.4000244140625
87.552082952388446,904.70001220703125
88.624462810528712,858.5
89.6966362371113,818
90.76860327281247,822.29998779296875
91.840363958286616,904.70001220703125
92.911918334189977,1121.5
93.983266441158776,1327.5
95.054408319829236,1419.4000244140625
96.12534401081939,1460.699951171875
97.19607355474,1226.300048828125
98.2665969922,997
99.336914363786491,898.5999755859375
100.40702571009024,844.20001220703125
101.47693107168197,814.79998779296875
102.54663048912334,805.5999755859375
103.61612400297781,821.20001220703125
104.68541165378701,802.29998779296875
105.75449348208713,801.5
106.82336952840706,788.4000244140625
107.89203983326297,787.9000244140625
108.96050443715831,761.20001220703125
110.02876338060378,735.79998779296875
111.09681670407736,678.5999755859375
112.16466444806247,680.5
113.23230665302981,659.5
114.2997433594428,660.20001220703125
115.36697460774849,661.20001220703125
116.43400043838665,643.79998779296875
117.50082089179705,645.29998779296875
118.56743600839945,648.0999755859375
119.63384582860272,627.70001220703125
120.70005039281386,618.20001220703125
121.76604974143083,621.79998779296875
122.83184391483519,585.70001220703125
123.89743295340486,574.9000244140625
124.96281689750322,539.0999755859375
126.02799578748636,555.79998779296875
127.09296966370857,512.4000244140625
128.15773856649867,499
129.22230253619455,473.29998779296875
130.28666161311048,443.20001220703125
131.35081583755345,432.89999389648438
132.414765249825,396.20001220703125
133.47850989022481,381.89999389648438
134.54204979901988,374.20001220703125
135.60538501649535,374.89999389648438
136.66851558290364,337.89999389648438
137.73144153850444,328.89999389648438
138.79416292353926,315.10000610351563
139.85667977824414,320.60000610351563
140.91899214284422,304.10000610351563
141.9811000575537,270
143.0430035625759,283.29998779296875
144.10470269811231,280.70001220703125
145.16619750435348,267.20001220703125
146.22748802146998,240.69999694824219
147.28857428963602,238
148.3494563490076,246
149.41013423973891,246.80000305175781
150.47060800196778,232.10000610351563
151.53087767582292,219.69999694824219
152.59094330143125,216.69999694824219
153.65080491890512,238.89999389648438
154.71046256834779,223.80000305175781
155.76991628984433,228.69999694824219
156.82916612349436,231
157.88821210936294,251.10000610351563
158.94705428751695,262.10000610351563
160.00569269801963,301.5
161.06412738090876,356.79998779296875
162.12235837622939,416.29998779296875
163.18038572400837,492.79998779296875
164.23820946425803,545.5999755859375
165.29582963700341,569.79998779296875
166.35324628222952,559
167.41045943993777,544.29998779296875
168.4674691501059,476.89999389648438
169.52427545270439,433.20001220703125
170.58087838770371,377.10000610351563
171.63727799505432,331
172.6934743146976,275
173.74946738657491,277.10000610351563
174.80525725060761,253.30000305175781
175.86084394671525,209.19999694824219
176.91622751480463,180.60000610351563
177.97140799477529,170.19999694824219
179.02638542651403,128.19999694824219
180.08115984989854,119.80000305175781
181.13573130480836,113.30000305175781
182.1900998310939,98.199996948242188
183.24426546861469,107.59999847412109
184.29822825721203,98.300003051757813
185.35198823671635,91.699996948242188
186.40554544695078,90.9000015258789
187.45889992773846,101.09999847412109
188.51205171887523,66.800003051757813
189.5650008601624,70
190.61774739138855,77.800003051757813
191.67029135232588,91.0999984741211
192.72263278274659,85.9000015258789
193.77477172241379,75.5
194.82670821106694,69.4000015258789
195.87844228846188,82
196.92997399431806,89
197.98130336836039,79.0999984741211
199.03243045030285,86
200.083355279854,79.4000015258789
201.13407789669873,85.199996948242188
202.18459834053465,100.80000305175781
203.23491665102665,90.9000015258789
204.28503286785053,114.5
205.33494703066026,94.4000015258789
206.38465917910617,108.90000152587891
207.43416935282403,123.59999847412109
208.48347759144417,125.59999847412109
209.53258393459691,131.89999389648438
210.58148842188348,147.10000610351563
211.63019109291054,144.89999389648438
212.67869198727021,145
213.726991144551,136.19999694824219
214.775088604325,164.39999389648438
215.82298440615341,148
216.8706785896029,152.60000610351563
217.91817119421466,138
218.96546225952443,148.89999389648438
220.01255182506975,145.5
221.05943993036635,138.10000610351563
222.10612661491905,123.19999694824219
223.15261191823993,134.69999694824219
224.19889587981743,141.89999389648438
225.24497853913635,112.09999847412109
226.29085993566514,111.80000305175781
227.33654010887221,100.19999694824219
228.38201909822055,94.5
229.42729694314221,93.5
230.47237368309288,85
231.51724935748462,86.0999984741211
232.56192400574764,84.9000015258789
233.60639766728673,79.9000015258789
234.65067038150482,86.199996948242188
235.69474218779396,81.5999984741211
236.73861312553527,68.800003051757813
237.78228323410804,81.4000015258789
238.82575255286974,83.9000015258789
239.86902112117787,68.0999984741211
240.9120889783826,73.9000015258789
241.95495616381777,80.0999984741211
242.99762271681357,67.9000015258789
244.04008867668745,74.5
245.08235408274959,85.199996948242188
246.1244189743029,74
247.16628339063755,84
248.20794737103279,119.5
249.24941095476788,104.69999694824219
250.29067418110571,128.30000305175781
251.33173708930008,162.60000610351563
252.37259971859567,188.69999694824219
253.41326210823536,177.5
254.45372429744384,167.5
255.49398632544035,160.10000610351563
256.53404823143683,137
257.57391005463069,114.80000305175781
258.61357183421751,99.5
259.65303360938196,80.199996948242188
260.69229541928871,77
261.73135730310787,64.699996948242188
262.77021929999864,71.300003051757813
263.80888144910386,47.900001525878906
264.84734378955909,58.700000762939453
265.88560636049988,59.5
266.92366920103996,61.299999237060547
267.9615323502876,46.200000762939453
268.99919584735289,47
270.03665973132047,46.799999237060547
271.07392404127677,57.599998474121094
272.1109888162955,40.099998474121094
273.14785409544129,54.299999237060547
274.18451991776965,60.799999237060547
275.22098632233428,44
276.25725334816525,59.799999237060547
277.29332103429442,69.4000015258789
278.32918941974458,62.400001525878906
279.36485854352395,68.5999984741211
280.40032844463531,52.299999237060547
281.43559916207232,55.599998474121094
282.4706707348214,57
283.50554320185074,58.200000762939453
284.540216602134,61.799999237060547
285.57469097462854,76.0999984741211
286.60896635827521,74.800003051757813
287.6430427920186,61.700000762939453
288.67692031479055,50.400001525878906
289.71059896550651,59.900001525878906
290.74407878308375,54
291.777359806425,53.5
292.81044207441846,45.799999237060547
293.84332562596137,53.5
294.87601049991827,61.099998474121094
295.90849673516095,44.299999237060547
296.94078437055396,51.700000762939453
297.97287344493816,56.599998474121094
299.00476399715808,48.700000762939453
300.03645606604368,39.299999237060547
301.06794969041584,51.599998474121094
302.09924490909361,32.299999237060547
303.13034176088149,41.700000762939453
304.16124028456943,41.599998474121094
305.1919405189492,23.399999618530273
306.222442502798,40.099998474121094
307.25274627488216,47
308.2828518739625,42.299999237060547
309.31275933879624,25.799999237060547
310.34246870811512,31.600000381469727
311.37198002066361,30.299999237060547
312.40129331515891,30.299999237060547
313.43040863031638,50.700000762939453
314.45932600484593,31.600000381469727
315.48804547744476,48.799999237060547
316.51656708679729,37.299999237060547
317.54489087158618,34.900001525878906
318.57301687048675,52.099998474121094
319.60094512215619,49.400001525878906
320.62867566524437,39
321.65620853840483,32.799999237060547
322.68354378026197,26.5
323.71068142945296,34.5
324.73762152458949,27.200000762939453
325.76436410428141,27.100000381469727
326.79090920712588,25.700000762939453
327.81725687171638,31.799999237060547
328.84340713663732,32.299999237060547
329.86936004045674,17.100000381469727
330.8951156217463,37.400001525878906
331.92067391905039,22.600000381469727
332.9460349709243,34.700000762939453
333.97119881590334,28.899999618530273
334.99616549251732,32.5
336.02093503928518,21.700000762939453
337.04550749471673,29.200000762939453
338.06988289731453,36.400001525878906
339.09406128557566,38
340.11804269798085,39.700000762939453
341.14182717300719,52.200000762939453
342.16541474912265,61.900001525878906
343.18880546478249,63.799999237060547
344.21199935844015,73.300003051757813
345.23499646853088,79.4000015258789
346.25779683349174,52.5
347.2804004917416,34.299999237060547
348.30280748169571,40.900001525878906
349.3250178417602,45.5
350.34703161032849,29.299999237060547
351.36884882579034,32.299999237060547
352.39046952652461,31.899999618530273
353.41189375090107,21.100000381469727
354.43312153727675,34.299999237060547
355.45415292401049,23.899999618530273
356.47498794944113,34
357.49562665190388,24.299999237060547
358.51606906973029,25.100000381469727
359.53631524122466,31.799999237060547
360.55636520471126,38.200000762939453
361.576218998478,31.899999618530273
362.59587666081825,25
363.6153382300181,35.299999237060547
364.63460374434362,33.5
365.65367324206454,34.400001525878906
366.67254676143239,26.799999237060547
367.69122434069686,29.399999618530273
368.70970601810041,22.299999237060547
369.7279918318618,23.899999618530273
370.74608182021075,24.799999237060547
371.7639760213533,28
372.78167447349733,30.799999237060547
373.79917721483071,31.5
374.81648428354674,29.600000381469727
375.8335957178133,21.399999618530273
376.85051155580732,31.899999618530273
377.86723183568211,23.5
378.88375659558915,23.100000381469727
379.90008587367265,22.5
380.91621970806045,28.399999618530273
381.932158136884,29.600000381469727
382.94790119825484,18.799999237060547
383.96344893028072,24.899999618530273
384.97880137105676,26.5
385.99395855867624,18.100000381469727
387.0089205312197,24.5
388.02368732675495,33.200000762939453
389.03825898334981,23.899999618530273
390.05263553905752,28.899999618530273
391.06681703192226,15.5
392.08080349998454,21.799999237060547
393.09459498126671,26.100000381469727
394.10819151379292,18.299999237060547
395.12159313558004,16.899999618530273
396.13479988461768,33.299999237060547
397.14781179890815,24.100000381469727
398.16062891643014,33.799999237060547
399.17325127516779,10.699999809265137
400.18567891308157,20.399999618530273
401.19791186813563,27.299999237060547
402.20995017827954,24.5
403.22179388145014,22.399999618530273
404.23344301558427,28.799999237060547
405.24489761860423,35.400001525878906
406.256157728425,32.799999237060547
407.26722338295986,22.200000762939453
408.27809462009827,23.700000762939453
409.28877147773528,25.600000381469727
410.29925399374588,22.5
411.30954220601052,22.5
412.31963615238783,27.200000762939453
413.3295358707328,35.099998474121094
414.33924139889314,41.099998474121094
415.348752774702,24
416.35807003599439,18.399999618530273
417.36719322058889,28.299999237060547
418.3761223662932,26.600000381469727
419.38485751091685,39.099998474121094
420.39339869224932,28.700000762939453
421.4017459480765,31.5
422.4098993161806,35.700000762939453
423.41785883432567,24.700000762939453
424.42562454027211,25.799999237060547
425.43319647177304,31
426.44057466656886,27.5
427.44775916239269,29.100000381469727
428.45474999697581,27
429.46154720802588,26
430.46815083326146,32.900001525878906
431.474560910372,33.599998474121094
432.48077747705611,34
433.48680057099773,29.299999237060547
434.4926302298627,18.799999237060547
435.49826649132046,36.5
436.50370939302593,36.200000762939453
437.50895897263217,26.700000762939453
438.5140152677759,29.600000381469727
439.51887831608292,28.399999618530273
440.52354815518265,28.899999618530273
441.52802482268817,29.5
442.532308356198,31.700000762939453
443.53639879331604,27.600000381469727
444.54029617162814,18.200000762939453
445.54400052871461,24.5
446.54751190214483,32.700000762939453
447.55083032947732,27.899999618530273
448.553955848276,18
449.55688849607577,28.200000762939453
450.55962831042052,28.299999237060547
451.56217532883238,28
452.56452958883892,11.600000381469727
453.56669112794589,36.5
454.56865998365174,30.700000762939453
455.57043619345859,26.399999618530273
456.57201979484853,29.5
457.57341082529638,27
458.57460932227514,33.900001525878906
459.57561532323962,36.5
460.57642886564281,23.899999618530273
461.57704998692861,30.899999618530273
462.57747872453183,23
463.57771511587816,42.900001525878906
464.57775919838059,35.200000762939453
465.5776110094539,22.299999237060547
466.57727058649289,25
467.57673796689414,33.900001525878906
468.5760131880379,23.399999618530273
469.57509628729895,26.200000762939453
470.57398730204477,27.100000381469727
471.57268626963196,25.200000762939453
472.57119322740982,29.100000381469727
473.56950821272039,23.799999237060547
474.56763126289479,31.200000762939453
475.56556241525323,31.100000381469727
476.56330170711954,20.5
477.5608491757921,23.399999618530273
478.55820485857475,25
479.55536879275314,29.700000762939453
480.55234101561109,26.700000762939453
481.54912156442151,25.899999618530273
482.54571047644822,33.200000762939453
483.54210778894412,33.400001525878906
484.5383135391603,38.599998474121094
485.53432776433874,24.200000762939453
486.53015050170507,36
487.52578178848125,24
488.521221661882,53.700000762939453
489.51647015911294,35.099998474121094
490.511527317376,31.299999237060547
491.50639317384957,35.700000762939453
492.50106776571556,26.700000762939453
493.49555113015049,24.5
494.48984330431631,27
495.48394432536406,27.5
496.477854230443,40.599998474121094
497.47157305668588,35.599998474121094
498.46510084122747,33.099998474121094
499.45843762119148,32.099998474121094
500.45158343368166,41
501.44453831580358,36.200000762939453
502.43730230465735,26.5
503.4298754373267,43
504.42225775089173,27
505.41444928242527,43.299999237060547
506.40645006898194,25.5
507.39826014762366,25.200000762939453
508.38987955538869,28.100000381469727
509.38130832932075,30.799999237060547
510.3725465064399,23.399999618530273
511.36359412377169,35.700000762939453
512.35445121832345,33.099998474121094
513.345117827108,34.099998474121094
514.33559398710713,26.299999237060547
515.32587973531554,24.899999618530273
516.31597510870961,16.899999618530273
517.305880144253,35.099998474121094
518.29559487891856,37.900001525878906
519.2851193496499,32.200000762939453
520.27445359339254,24.399999618530273
521.2635976470865,39
522.25255154765728,22.899999618530273
523.24131533202308,29.600000381469727
524.22988903709665,25.799999237060547
525.21827269978348,33.599998474121094
526.20646635697267,27.299999237060547
527.19447004554968,39
528.18228380239634,25.700000762939453
529.16990766437993,25.899999618530273
530.15734166836046,35
531.14458585119428,35.5
532.13164024971957,29.700000762939453
533.11850490077813,34.599998474121094
534.1051798411936,40.299999237060547
535.09166510778778,36
536.0779607373679,45.299999237060547
537.06406676674123,25.600000381469727
538.04998323269865,33.599998474121094
539.03571017202739,42.400001525878906
540.02124762150379,30.100000381469727
541.00659561790053,29.600000381469727
541.99175419797393,30.899999618530273
542.97672339848032,35.900001525878906
543.96150325615963,33.599998474121094
544.94609380775364,30.799999237060547
545.93049508998593,34.099998474121094
546.91470713957824,27
547.89872999324143,22
548.88256368767543,33.099998474121094
549.86620825957834,30
550.84966374563555,36.400001525878906
551.83293018252334,18.399999618530273
552.81600760691072,40.700000762939453
553.79889605546123,37.299999237060547
554.78159556482933,26.899999618530273
555.76410617165857,36.5
556.74642791258339,25.899999618530273
557.72856082423277,25.299999237060547
558.71050494323026,28
559.692260306183,37.099998474121094
560.67382694969274,29.799999237060547
561.65520491036477,31.600000381469727
562.63639422477536,38.5
563.617394929508,38.799999237060547
564.59820706113169,39.400001525878906
565.5788306562099,64.9000015258789
566.55926575129524,91.9000015258789
567.53951238293848,93.5999984741211
568.51957058766675,105
569.49944040201626,61.299999237060547
570.47912186250869,50.799999237060547
571.45861500565115,29.200000762939453
572.43791986795441,22.899999618530273
573.417036485911,39.700000762939453
574.3959648960099,29.5
575.37470513472908,22
576.35325723854476,40.5
577.3316212439131,43.599998474121094
578.309797187294,26
579.28778510513439,34.799999237060547
580.26558503387241,42.400001525878906
581.24319700993874,31.299999237060547
582.22062106975318,28.899999618530273
583.1978572497319,38.099998474121094
584.17490558627833,25.399999618530273
585.15176611579591,32.799999237060547
586.12843887466624,31.100000381469727
587.1049238992764,33
588.08122122599343,40.799999237060547
589.05733089119167,34.200000762939453
590.03325293122,25.100000381469727
591.00898738242722,32.700000762939453
591.98453428115681,31.899999618530273
592.95989366373578,36.5
593.93506556649481,25.200000762939453
594.91005002574457,34.599998474121094
595.88484707779207,36.900001525878906
596.85945675894072,24.899999618530273
597.83387910547935,26.299999237060547
598.808114153695,40.400001525878906
599.78216193985281,28.799999237060547
600.7560225002253,28.700000762939453
601.729695871074,29
602.70318208864228,36.599998474121094
603.67648118917714,34.900001525878906
604.64959320891285,29.5
605.62251818407458,28.799999237060547
606.59525615087659,36
607.56780714553315,26.5
608.54017120424214,36.5
609.51234836320145,18.600000381469727
610.48433865859079,21.799999237060547
611.45614212658984,35.900001525878906
612.42775880336558,33.799999237060547
613.39918872508315,36
614.37043192788951,36.200000762939453
615.34148844793526,42.799999237060547
616.31235832134917,32.599998474121094
617.28304158426727,51
618.253538272802,33.099998474121094
619.2238484230711,38.099998474121094
620.19397207117981,32.900001525878906
621.16390925321321,35.299999237060547
622.13366000527276,25.700000762939453
623.103224363429,35.900001525878906
624.07260236375441,36.400001525878906
625.04179404231763,36.400001525878906
626.01079943516561,28.399999618530273
626.97961857835253,40.900001525878906
627.94825150791621,21.799999237060547
628.91669825988356,29.5
629.8849588702833,33.799999237060547
630.85303337512414,22.899999618530273
631.8209218104148,33.599998474121094
632.7886242121549,35.200000762939453
633.75614061633678,41.5
634.72347105893823,33.400001525878906
635.69061557593523,30.600000381469727
636.65757420329646,34.5
637.6243469769779,25.899999618530273
638.59093393293,30
639.55733510709615,39.700000762939453
640.5235505354085,24.5
641.48958025379216,35.700000762939453
642.45542429816669,31.600000381469727
643.4210827044426,20.600000381469727
644.38655550851945,37.599998474121094
645.351842746295,26.799999237060547
646.31694445364883,33.5
647.28186066646231,34.099998474121094
648.24659142060591,33.799999237060547
649.21113675193737,32
650.17549669631444,33.299999237060547
651.13967128958211,24
652.10366056757266,24.200000762939453
653.067464566122,24.399999618530273
654.03108332104784,25.100000381469727
654.99451686816428,38.099998474121094
655.95776524327266,32.5
656.920828482178,33.599998474121094
657.88370662066518,26.700000762939453
658.84639969451382,40.5
659.80890773950159,32.200000762939453
660.77123079139164,30.5
661.733368885938,40.400001525878906
662.69532205889118,19.799999237060547
663.65709034599786,45.599998474121094
664.61867378298484,16.399999618530273
665.58007240558072,38.400001525878906
666.54128624949954,22
667.50231535045532,37.400001525878906
668.46315974414392,21.399999618530273
669.42381946626119,34.400001525878906
670.38429455249025,40.099998474121094
671.34458503851238,27
672.30469095999615,35.599998474121094
673.2646123525974,36.099998474121094
674.224349251972,35.900001525878906
675.18390169377017,35.700000762939453
676.14326971362243,34.599998474121094
677.10245334716274,23.299999237060547
678.0614526300069,35.700000762939453
679.02026759777618,35.900001525878906
679.97889828607,28
680.93734473048789,34
681.89560696662011,30.200000762939453
682.85368503004611,40.700000762939453
683.81157895634169,32.599998474121094
684.76928878106992,34.200000762939453
