-777.87311982425126,228.5
-776.63374739947358,246.80000305175781
-775.39461482227671,257.29998779296875
-774.15572204389719,273.70001220703125
-772.91706901559337,280.89999389648438
-771.67865568863454,290.79998779296875
-770.44048201429,282
-769.20254794384346,273.5
-767.96485342860433,284.70001220703125
-766.7273984198855,286.60000610351563
-765.49018286900719,272.5
-764.25320672730777,279.5
-763.01646994613657,276.39999389648438
-761.77997247685744,300
-760.5437142708488,287.79998779296875
-759.307695279489,295.70001220703125
-758.07191545417118,276.89999389648438
-756.83637474631723,277.60000610351563
-755.601073107342,290.29998779296875
-754.36601048868215,285.20001220703125
-753.13118684178153,274.89999389648438
-751.89660211810587,287.5
-750.66225626912092,275.5
-749.42814924630693,288.70001220703125
-748.19428100116238,294.70001220703125
-746.960651485193,284.39999389648438
-745.72726064991912,292.20001220703125
-744.49410844686827,286.20001220703125
-743.26119482758622,265.39999389648438
-742.02851974362966,291.20001220703125
-740.79608314656616,287.89999389648438
-739.5638849879706,283.60000610351563
-738.331925219436,276.79998779296875
-737.10020379257367,289.20001220703125
-735.86872065898388,277.39999389648438
-734.63747577031063,280.89999389648438
-733.406469078187,286.5
-732.17570053426061,290
-730.94517009020092,280
-729.71487769768464,280.10000610351563
-728.48482330838851,283.89999389648438
-727.25500687402564,273.5
-726.02542834630549,281.70001220703125
-724.79608767694481,271.29998779296875
-723.56698481768581,276.79998779296875
-722.33811972027434,271.89999389648438
-721.10949233647079,275
-719.88110261805014,282.39999389648438
-718.652950516791,279.10000610351563
-717.42503598449366,288.79998779296875
-716.19735897296232,269.60000610351563
-714.96991943401918,275.10000610351563
-713.74271731949739,293.39999389648438
-712.515752581241,293.20001220703125
-711.28902517110146,270.10000610351563
-710.06253504095184,281.29998779296875
-708.83628214267264,268.10000610351563
-707.610266428148,283.70001220703125
-706.384487849291,289.29998779296875
-705.15894635801124,270.79998779296875
-703.93364190623652,279.70001220703125
-702.70857444590911,284.89999389648438
-701.48374392898586,276.20001220703125
-700.25915030741635,281.29998779296875
-699.03479353318289,283.79998779296875
-697.81067355827872,273.60000610351563
-696.58679033470071,270.5
-695.36314381444936,278.79998779296875
-694.1397339495652,280.60000610351563
-692.91656069207056,288.60000610351563
-691.69362399401689,280.79998779296875
-690.47092380745926,280.39999389648438
-689.24846008447821,272.70001220703125
-688.02623277714338,273.10000610351563
-686.80424183756077,287
-685.58248721782911,289.89999389648438
-684.360968870069,274.5
-683.13968674641546,275.70001220703125
-681.91864079900733,279.79998779296875
-680.69783097999425,276.10000610351563
-679.4772572415477,282.70001220703125
-678.25691953584283,302.60000610351563
-677.0368178150693,289.20001220703125
-675.81695203143136,298.10000610351563
-674.59732213714051,300.29998779296875
-673.37792808442282,288.10000610351563
-672.15876982551163,284.20001220703125
-670.9398473126621,297.10000610351563
-669.72116049812939,279.20001220703125
-668.50270933419051,281
-667.28449377312245,292.60000610351563
-666.0665137672313,290.39999389648438
-664.84876926881952,280.89999389648438
-663.63126023020413,292.20001220703125
-662.413986603724,278
-661.19694834172151,302
-659.9801453965465,295.70001220703125
-658.76357772057054,290.39999389648438
-657.54724526617247,284.39999389648438
-656.33114798573843,295.60000610351563
-655.11528583168,281.60000610351563
-653.89965875640155,296.70001220703125
-652.68426671233283,295.70001220703125
-651.46910965191455,286.39999389648438
-650.25418752759469,295.39999389648438
-649.03950029183216,293.10000610351563
-647.825047897104,283.5
-646.61083029589463,302
-645.39684744069928,290
-644.18309928402778,294.39999389648438
-642.96958577839359,308.70001220703125
-641.75630687633929,305
-640.54326253040745,294.70001220703125
-639.33045269314425,304.89999389648438
-638.117877317125,287.79998779296875
-636.90553635492142,281.10000610351563
-635.69342975913059,298.89999389648438
-634.481557482357,282
-633.26991947720853,295.20001220703125
-632.05851569631523,313.89999389648438
-630.84734609231418,299
-629.63641061784983,287.79998779296875
-628.4257092255848,310.29998779296875
-627.21524186819988,291.79998779296875
-626.00500849836862,298.60000610351563
-624.79500906879366,286.10000610351563
-623.58524353217763,279.70001220703125
-622.37571184124863,299.89999389648438
-621.1664139487275,302.79998779296875
-619.95734980736415,315.70001220703125
-618.74851936991581,301
-617.539922589136,289.70001220703125
-616.33155941781479,302.60000610351563
-615.12342980873473,295.79998779296875
-613.91553371470036,294.10000610351563
-612.70787108852346,293.39999389648438
-611.50044188302672,295.89999389648438
-610.29324605104739,297.60000610351563
-609.08628354543725,288
-607.87955431905175,319.89999389648438
-606.67305832475722,295
-605.46679551544912,298.79998779296875
-604.26076584400835,297.20001220703125
-603.05496926335218,306.10000610351563
-601.849405726387,294
-600.64407518604821,295.10000610351563
-599.438977595275,285.89999389648438
-598.234112907021,294.29998779296875
-597.02948107425073,300.10000610351563
-595.82508204993974,302.70001220703125
-594.62091578707441,281.89999389648438
-593.41698223864842,294.10000610351563
-592.21328135768454,279.89999389648438
-591.009813097191,294.5
-589.80657741020877,294.79998779296875
-588.60357424978247,287.60000610351563
-587.4008035689676,288.10000610351563
-586.19826532083425,292.60000610351563
-584.99595945845977,290.39999389648438
-583.793885934936,280.29998779296875
-582.5920447033659,286.70001220703125
-581.39043571686307,302.39999389648438
-580.18905892855764,293.10000610351563
-578.98791429158518,289.70001220703125
-577.78700175909034,285
-576.58632128423778,295.39999389648438
-575.38587282020308,288.60000610351563
-574.1856563201618,299.39999389648438
-572.98567173731681,288.70001220703125
-571.78591902487278,299.79998779296875
-570.58639813603986,292.79998779296875
-569.38710902406274,295.89999389648438
-568.18805164217156,294.79998779296875
-566.98922594362557,284.89999389648438
-565.790631881684,287.60000610351563
-564.59226940962253,284.89999389648438
-563.39413848073127,305.79998779296875
-562.19623904831133,280.5
-560.99857106566742,301.5
-559.80113448612792,274.39999389648438
-558.60392926301938,289.60000610351563
-557.40695534968654,288.89999389648438
-556.21021269949415,293.5
-555.0137012658015,290.20001220703125
-553.81742100199153,296.79998779296875
-552.62137186145628,295.60000610351563
-551.4255537975896,296.60000610351563
-550.22996676381626,280.20001220703125
-549.03461071355377,291.79998779296875
-547.8394856002451,296.89999389648438
-546.64459137733138,288.70001220703125
-545.449927998272,284.29998779296875
-544.25549541654073,307
-543.06129358562066,275
-541.86732245900566,298.29998779296875
-540.67358199019873,281.20001220703125
-539.48007213271376,301.79998779296875
-538.28679284007922,291
-537.09374406584539,300.89999389648438
-535.900925763548,294.79998779296875
-534.70833788675736,309.79998779296875
-533.51598038904558,299.39999389648438
-532.32385322399932,289.20001220703125
-531.13195634520889,305.29998779296875
-529.94028970629006,299.29998779296875
-528.74885326085314,298.89999389648438
-527.55764696253573,298.60000610351563
-526.36667076497724,297.70001220703125
-525.17592462183165,315.60000610351563
-523.985408486762,297.5
-522.79512231344415,298.29998779296875
-521.60506605556839,290
-520.41523966682871,307.70001220703125
-519.22564310093912,297.70001220703125
-518.0362763116209,299.79998779296875
-516.84713925260257,297
-515.65823187763453,290
-514.46955414046715,309.39999389648438
-513.28110599486718,288.20001220703125
-512.09288739461954,276.70001220703125
-510.90489829350736,285.20001220703125
-509.71713864533194,298.89999389648438
-508.52960840390369,287
-507.3423075230512,289.70001220703125
-506.15523595660488,300.60000610351563
-504.96839365841697,287.39999389648438
-503.78178058233607,292.39999389648438
-502.59539668223624,295
-501.4092419119952,288.79998779296875
-500.223316225507,291.79998779296875
-499.0376195766712,303.10000610351563
-497.85215191940188,297.39999389648438
-496.666913207624,314.39999389648438
-495.48190339527719,305.5
-494.29712243630638,302.79998779296875
-493.11257028467116,286.10000610351563
-491.928246894342,315.89999389648438
-490.7441522193003,300
-489.56028621353471,313
-488.37664883105754,307.5
-487.19324002587746,309.89999389648438
-486.01005975202315,307.79998779296875
-484.8271079635324,303.5
-483.6443846144557,302.39999389648438
-482.46188965885085,301.89999389648438
-481.27962305079018,302.5
-480.09758474435512,302.5
-478.91577469364165,297.60000610351563
-477.73419285275304,301.60000610351563
-476.55283917580709,288
-475.37171361693436,302.5
-474.19081613026719,299.5
-473.010146669958,316.20001220703125
-471.82970519017181,304.5
-470.64949164507379,301.70001220703125
-469.46950598885633,289.60000610351563
-468.28974817570452,292.20001220703125
-467.1102181598344,295.39999389648438
-465.93091589545475,292.29998779296875
-464.75184133679977,307.10000610351563
-463.57299443810552,302.70001220703125
-462.39437515362624,285
-461.2159834376198,295.60000610351563
-460.03781924436043,303.79998779296875
-458.85988252813513,287.39999389648438
-457.68217324323632,294.20001220703125
-456.50469134396917,299.60000610351563
-455.32743678465886,294.10000610351563
-454.15040951962692,292.70001220703125
-452.97360950321672,296.5
-451.79703668977709,299.20001220703125
-450.62069103367321,285.10000610351563
-449.4445724892721,301.89999389648438
-448.26868101096989,280.89999389648438
-447.09301655315357,285.79998779296875
-445.9175790702302,309.39999389648438
-444.74236851661954,287.5
-443.56738484675407,286.20001220703125
-442.39262801506811,306.5
-441.21809797601236,293.79998779296875
-440.0437946840575,294.89999389648438
-438.86971809366878,285.10000610351563
-437.69586815933872,300
-436.52224483555256,291.89999389648438
-435.34884807682647,299.5
-434.17567783767481,294
-433.00273407262466,289
-431.83001673621948,285.20001220703125
-430.65752578300453,301.60000610351563
-429.4852611675542,298.70001220703125
-428.31322284443013,289.29998779296875
-427.14141076821943,309.29998779296875
-425.96982489351649,302.5
-424.79846517493388,291.20001220703125
-423.62733156708055,309.10000610351563
-422.45642402459453,293.5
-421.28574250211022,296.89999389648438
-420.1152869542766,300.5
-418.94505733575534,294.70001220703125
-417.77505360122632,293.10000610351563
-416.60527570536397,302.60000610351563
-415.43572360287,287.70001220703125
-414.26639724844608,298.60000610351563
-413.09729659681216,300
-411.92842160268992,303.89999389648438
-410.7597722208302,290.29998779296875
-409.59134840596926,299.5
-408.42315011287792,303
-407.2551772963252,322.79998779296875
-406.087429911091,315.89999389648438
-404.9199079119735,301.10000610351563
-403.75261125377619,315.20001220703125
-402.58553989131542,308.10000610351563
-401.41869377941293,292
-400.25207287291232,303.79998779296875
-399.08567712666627,302.10000610351563
-397.919506495522,317.10000610351563
-396.75356093436312,309.79998779296875
-395.58784039806596,314.29998779296875
-394.42234484151959,289.39999389648438
-393.25707421963307,310.89999389648438
-392.09202848732275,296.5
-390.92720759950862,307.60000610351563
-389.76261151112521,315.70001220703125
-388.59824017713072,300.5
-387.43409355247422,304.60000610351563
-386.27017159212846,302.5
-385.10647425107527,296.70001220703125
-383.94300148430193,297.89999389648438
-382.77975324681393,291.29998779296875
-381.616729493624,304.20001220703125
-380.453930179754,296.39999389648438
-379.29135526024038,298.60000610351563
-378.129004690134,306.20001220703125
-376.96687842448227,303.89999389648438
-375.80497641835791,306.89999389648438
-374.64329862683917,311.20001220703125
-373.4818450050152,287.10000610351563
-372.32061550798426,294.29998779296875
-371.15961009086277,304.79998779296875
-369.99882870877082,301.89999389648438
-368.83827131683756,297.60000610351563
-367.677937870214,287
-366.51782832404751,287
-365.3579426335109,299.60000610351563
-364.19828075377518,304.29998779296875
-363.03884264003136,294
-361.87962824747046,302.10000610351563
-360.7206375313126,304.79998779296875
-359.56187044677063,306.29998779296875
-358.403326949081,314.70001220703125
-357.24500699348027,289.89999389648438
-356.08691053522307,291.79998779296875
-354.92903752956954,301.20001220703125
-353.771387931798,304.39999389648438
-352.61396169719228,308.39999389648438
-351.45675878105067,291.10000610351563
-350.29977913867333,304.89999389648438
-349.14302272538407,301.39999389648438
-347.98648949651215,308.89999389648438
-346.83017940739046,303.10000610351563
-345.67409241337191,316.39999389648438
-344.51822846982031,283.10000610351563
-343.36258753210313,302
-342.20716955560965,301.79998779296875
-341.05197449572188,306.5
-339.89700230785638,296.79998779296875
-338.74225294741518,295.10000610351563
-337.58772636983667,310.5
-336.43342253054652,303.39999389648438
-335.27934138499768,285.39999389648438
-334.12548288865037,309.10000610351563
-332.97184699696481,300.20001220703125
-331.81843366542853,296.5
-330.66524284953266,295.10000610351563
-329.51227450476654,297.79998779296875
-328.35952858665769,299
-327.20700505071909,291.39999389648438
-326.05470385248555,286.5
-324.90262494750459,299.60000610351563
-323.75076829132558,313.89999389648438
-322.59913383951789,292
-321.44772154765633,288.20001220703125
-320.29653137132846,284.60000610351563
-319.14556326613092,292.79998779296875
-317.99481718767311,294.79998779296875
-316.84429309157531,293.70001220703125
-315.69399093346874,291.5
-314.54391066899007,287.10000610351563
-313.39405225379596,290.60000610351563
-312.24441564354129,288.70001220703125
-311.09500079390455,280
-309.94580766056788,291.10000610351563
-308.79683619922253,283.70001220703125
-307.64808636558337,299.20001220703125
-306.49955811535619,301.89999389648438
-305.35125140426862,289.60000610351563
-304.203166188061,276.79998779296875
-303.05530242247733,305.79998779296875
-301.90766006327794,284.5
-300.76023906623413,291.39999389648438
-299.61303938712081,289.5
-298.46606098173288,311.5
-297.31930380586527,291.89999389648438
-296.17276781533837,282.10000610351563
-295.02645296596893,293.5
-293.88035921359551,292.39999389648438
-292.73448651404942,293.20001220703125
-291.58883482319834,301.5
-290.44340409690449,282.60000610351563
-289.29819429103554,299.70001220703125
-288.15320536148647,291.70001220703125
-287.0084372641486,283.29998779296875
-285.86388995493689,293.29998779296875
-284.7195633897627,273
-283.57545752455371,292
-282.431572315254,282.29998779296875
-281.28790771781496,317.89999389648438
-280.1444636881879,307.70001220703125
-279.00124018235692,309.60000610351563
-277.8582371562934,301.60000610351563
-276.71545456599597,289.29998779296875
-275.57289236746692,300.60000610351563
-274.43055051671945,294.5
-273.28842896977221,313.70001220703125
-272.14652768267115,294.89999389648438
-271.00484661145128,312.70001220703125
-269.86338571217493,295.5
-268.72214494090622,312
-267.581124253722,305.29998779296875
-266.44032360671372,307.20001220703125
-265.29974295597458,299.39999389648438
-264.159382257616,293.60000610351563
-263.01924146776037,308.60000610351563
-261.87932054252815,298.89999389648438
-260.73961943807444,309.20001220703125
-259.60013811053796,322.10000610351563
-258.46087651608468,312.60000610351563
-257.32183461088971,316.10000610351563
-256.18301235113358,332.5
-255.04440969300595,320.39999389648438
-253.90602659271462,311.10000610351563
-252.76786300647473,294.79998779296875
-251.62991889051045,313.39999389648438
-250.49219420105146,303.60000610351563
-249.35468889435288,311
-248.217402926668,300.89999389648438
-247.08033625425924,307.89999389648438
-245.94348883341445,302.60000610351563
-244.80686062040877,304.29998779296875
-243.67045157154826,318.39999389648438
-242.53426164314442,319.70001220703125
-241.39829079150877,298.10000610351563
-240.26253897297829,302.20001220703125
-239.12700614388814,325.39999389648438
-237.99169226059348,295.39999389648438
-236.85659727945676,286.10000610351563
-235.72172115684771,332.10000610351563
-234.58706384914331,313.5
-233.4526253127442,310.20001220703125
-232.31840550405468,305
-231.18440437947902,326.10000610351563
-230.05062189545242,301.70001220703125
-228.91705800840282,309.60000610351563
-227.78371267477996,323.89999389648438
-226.65058585103725,309.79998779296875
-225.51767749363898,308.5
-224.38498755906403,310.10000610351563
-223.2525160037967,306.29998779296875
-222.1202627843395,322.29998779296875
-220.98822785719858,312.70001220703125
-219.85641117888918,309.39999389648438
-218.7248127059429,310.70001220703125
-217.59343239489681,315.39999389648438
-216.46227020230072,301.89999389648438
-215.3313260847226,310.89999389648438
-214.20059999872137,307.39999389648438
-213.07009190087956,306
-211.9398017477979,312.39999389648438
-210.80972949606621,317.29998779296875
-209.67987510230523,308
-208.5502385231357,309.89999389648438
-207.42081971518564,306.70001220703125
-206.29161863510308,299.70001220703125
-205.16263523954149,288.60000610351563
-204.03386948516163,326.60000610351563
-202.90532132864428,295.60000610351563
-201.77699072666474,313.70001220703125
-200.64887763592742,293.89999389648438
-199.52098201313311,304
-198.39330381500076,307.5
-197.26584299825117,302.29998779296875
-196.13859951962695,319.10000610351563
-195.01157333587253,305.20001220703125
-193.88476440374143,297.10000610351563
-192.75817268001083,302
-191.63179812144881,307.5
-190.50564068485255,307.89999389648438
-189.3797003270156,303.5
-188.25397700474423,299.20001220703125
-187.12847067486291,308.60000610351563
-186.00318129420339,300.79998779296875
-184.87810881960104,299
-183.75325320790944,296.89999389648438
-182.62861441598398,326.89999389648438
-181.50419240070187,311.89999389648438
-180.37998711894033,337.89999389648438
-179.25599852759296,307.5
-178.13222658356062,340.10000610351563
-177.00867124376236,327.20001220703125
-175.88533246510815,324.29998779296875
-174.76221020454068,336.20001220703125
-173.63930441900084,341.89999389648438
-172.51661506544224,344.29998779296875
-171.39414210082759,366.79998779296875
-170.27188548212871,386.29998779296875
-169.14984516633558,407.79998779296875
-168.02802111043638,431.60000610351563
-166.90641327144112,442.60000610351563
-165.78502160636344,429.79998779296875
-164.66384607223154,381.20001220703125
-163.54288662607541,398.60000610351563
-162.4221432249451,360.29998779296875
-161.30161582589426,335.89999389648438
-160.18130438598928,339.70001220703125
-159.06120886230929,362.60000610351563
-157.94132921194432,342.5
-156.82166539198624,335.39999389648438
-155.70221735953965,344
-154.58298507173095,337.79998779296875
-153.46396848568111,339.10000610351563
-152.34516755853474,369.39999389648438
-151.22658224743282,359.70001220703125
-150.10821250953813,358.79998779296875
-148.99005830202077,352.39999389648438
-147.87211958205626,353.79998779296875
-146.75439630683832,365.5
-145.63688843355885,354
-144.51959591943705,362.60000610351563
-143.40251872168847,368.79998779296875
-142.28565679753956,364.70001220703125
-141.16901010423499,390.10000610351563
-140.05257859902849,379.10000610351563
-138.93636223917383,397.79998779296875
-137.82036098194294,389.79998779296875
-136.70457478462595,385.29998779296875
-135.58900360449843,404.70001220703125
-134.47364739887416,423.70001220703125
-133.35850612506329,421.5
-132.24357974038321,418.89999389648438
-131.12886820217136,436.39999389648438
-130.01437146776334,436.89999389648438
-128.90008949451476,454.39999389648438
-127.78602223979033,467.5
-126.67216966095839,498.70001220703125
-125.55853171540366,486.89999389648438
-124.44510836051813,500.10000610351563
-123.33189955371017,521
-122.2189052523845,525.70001220703125
-121.10612541397313,557.79998779296875
-119.9935599959008,566.20001220703125
-118.88120895561769,569
-117.76907225057403,595.5999755859375
-116.65714983823818,602.0999755859375
-115.54544167607855,579.9000244140625
-114.43394772158354,616.9000244140625
-113.32266793224335,620
-112.21160226556458,637.5999755859375
-111.10075067906291,658.29998779296875
-109.99011313026131,677.70001220703125
-108.87968957669545,690.79998779296875
-107.76947997590833,683.5
-106.65948428545926,683.29998779296875
-105.54970246290759,672.5
-104.44013446582903,661.20001220703125
-103.33078025181567,678.79998779296875
-102.22163977845048,681.70001220703125
-101.11271300335284,707.5999755859375
-100.00399988412755,847.5
-98.8955003784049,1045
-97.787214443818812,1180.199951171875
-96.679142038015925,1182.199951171875
-95.571283118651991,1073.800048828125
-94.46363764339003,844.20001220703125
-93.356205569909434,712.4000244140625
-92.248986855895055,684.29998779296875
-91.141981459042654,700
-90.035189337055272,698.29998779296875
-88.928610447654137,771.70001220703125
-87.8222447485623,764.4000244140625
-86.716092197515536,782.5999755859375
-85.610152752264185,729.4000244140625
-84.504426370558576,782.29998779296875
-83.3989130101636,878.9000244140625
-82.29361262886232,973.9000244140625
-81.188525184439641,1131.9000244140625
-80.083650634691367,1475.699951171875
-78.978988937416943,1933
-77.8745400504431,2424.800048828125
-76.7703039315893,2585.199951171875
-75.666280538693172,2362.39990234375
-74.56246982959965,1876.4000244140625
-73.45887176217002,1356
-72.355486294265575,1066.4000244140625
-71.2523133837658,977.5
-70.149352988557439,955.5
-69.046605066534539,963.20001220703125
-67.944069575602043,943.29998779296875
-66.84174647367945,907.9000244140625
-65.739635718693535,912.9000244140625
-64.63773726857471,871.5999755859375
-63.5360510812734,889.5999755859375
-62.434577114750937,915.20001220703125
-61.3333153269632,1066.4000244140625
-60.232265675895178,1328.4000244140625
-59.131428119522752,2040.800048828125
-58.030802615854554,3445.199951171875
-56.930389122886481,4472.2001953125
-55.830187598636257,4712.5
-54.730198001132521,4084.800048828125
-53.630420288413006,2788.10009765625
-52.530854418515446,1967.800048828125
-51.431500349504859,1846
-50.332358039440805,2400.10009765625
-49.233427446402857,2975.60009765625
-48.134708528470583,3352.5
-47.036201243741743,4260.7998046875
-45.937905550323194,7217.5
-44.839821406334522,10577.2001953125
-43.74194876988804,14534.5
-42.64428759913244,16553.5
-41.5468378522055,14396.400390625
-40.449599487265004,13000.7998046875
-39.352572462472381,9767.2998046875
-38.255756736005424,7487.60009765625
-37.159152266047386,5500.89990234375
-36.062759010790614,3343.199951171875
-34.966576928443828,2603.699951171875
-33.8706059772212,4265.2998046875
-32.774846115338732,13339.7001953125
-31.679297301039696,19565.5
-30.583959492563736,20747
-29.488832648166863,19159.900390625
-28.393916726110547,7950
-27.299211684672628,3595.5
-26.204717482129126,2794.39990234375
-25.110434076774254,2780.60009765625
-24.016361426916774,3188.39990234375
-22.922499490865448,2954.60009765625
-21.828848226945411,2856.10009765625
-20.735407593489072,2386
-19.642177548834297,1851.9000244140625
-18.549158051340783,1809.4000244140625
-17.456349059368222,1811.199951171875
-16.363750531281767,1923.699951171875
-15.271362425470215,1964.199951171875
-14.179184700326005,1981.300048828125
-13.087217314247027,2048.300048828125
-11.995460225642091,2086.39990234375
-10.903913392940012,2194.800048828125
-9.8125767745696066,2287.300048828125
-8.7214503289651475,2352
-7.6305340145827358,2394.199951171875
-6.5398277898821107,2366.800048828125
-5.4493316133357439,2068.60009765625
-4.3590454434179264,1459.9000244140625
-3.26896923861932,1023.0999755859375
-2.1791029574433196,2687.699951171875
-1.0894465583987767,3187.5
-3.637978807091713E-12,2307.5
1.0892367592168739,2331.60009765625
2.1782637607157085,981.70001220703125
3.2670810459494533,1499.5
4.3556886563619628,2202
5.4440866333861777,2609.10009765625
6.5322750184368488,2709.60009765625
7.6202538529305457,2638.5
8.7080231782692863,2624.60009765625
9.7955830358478124,2563.89990234375
10.882933467048133,2557.89990234375
11.970074513241343,2544
13.0570062157949,2474.199951171875
14.143728616063527,2465.89990234375
15.230241755389216,2450.800048828125
16.316545675103043,2411.89990234375
17.402640416532449,2393.199951171875
18.488526020995778,2438.60009765625
19.574202529791364,3009.199951171875
20.659669984221182,3918.60009765625
21.744928425567196,4212.2998046875
22.82997789510955,4562.2998046875
23.914818434106564,4129.10009765625
24.99945008382565,3948.89990234375
26.083872885503297,4891.7998046875
27.168086880381452,9581.099609375
28.252092109691148,26482.30078125
29.33588861464159,33491.5
30.419476436449258,33426.69921875
31.502855616305169,28113.599609375
32.586026195402155,9161.099609375
33.668988214920319,4562.10009765625
34.751741716028846,4925.39990234375
35.834286739884192,8233.7001953125
36.916623327637353,11969.400390625
37.998751520428414,16188.7998046875
39.080671359392,22281.80078125
40.162382885640909,26069.5
41.243886140291579,30473.099609375
42.325181164447713,31127.19921875
43.406267999200281,24004.30078125
44.4871466856257,17812.5
45.5678172648004,10271
46.648279777786229,7327.60009765625
47.72853426563961,6407.2001953125
48.8085807694024,5700.5
49.888419330107354,4092.39990234375
50.968049988779967,3669.5
52.047472786436629,4671.89990234375
53.126687764075541,7424.2001953125
54.205694962698544,10182.2998046875
55.284494423289289,10913.099609375
56.363086186827786,9969.400390625
57.44147029427404,6731.5
58.519646786589874,3810.60009765625
59.597615704718919,2628.10009765625
60.67537708960117,2113.60009765625
61.752930982163889,1946.9000244140625
62.83027742332888,1839.800048828125
63.90741645399612,1887.699951171875
64.984348115074681,2004.5
66.061072447448169,2096.89990234375
67.13758949199655,2160
68.213899289597975,2163.699951171875
69.29000188109967,2244.39990234375
70.36589730736705,2326.699951171875
71.441585609234608,2665.39990234375
72.517066827535018,3609.60009765625
73.592341003088222,5290.2001953125
74.667408176715981,6920.2998046875
75.742268389207311,7832.10009765625
76.816921681369422,7465.10009765625
77.891368093980418,5815.7001953125
78.965607667816585,4321
80.039640443639655,3284.39990234375
81.113466462209544,2707
82.187085764271615,2360.39990234375
83.260498390560315,2134.39990234375
84.333704381804637,1975.699951171875
85.40670377871902,2070.89990234375
86.479496622014267,2095.699951171875
87.552082952388446,2091.800048828125
88.624462810528712,2059.10009765625
89.6966362371113,1891.5
90.76860327281247,1894.800048828125
91.840363958286616,1916.699951171875
92.911918334189977,2216.60009765625
93.983266441158776,2987.39990234375
95.054408319829236,3878.699951171875
96.12534401081939,4298.60009765625
97.19607355474,4087.39990234375
98.2665969922,3296.89990234375
99.336914363786491,2496.10009765625
100.40702571009024,2224.800048828125
101.47693107168197,2137.10009765625
102.54663048912334,2071.800048828125
103.61612400297781,2096.89990234375
104.68541165378701,2126.60009765625
105.75449348208713,2215.199951171875
106.82336952840706,2259.60009765625
107.89203983326297,2317.5
108.96050443715831,2276.89990234375
110.02876338060378,2210
111.09681670407736,2103.5
112.16466444806247,2057.699951171875
113.23230665302981,1991.300048828125
114.2997433594428,1970.800048828125
115.36697460774849,1962.300048828125
116.43400043838665,1932.800048828125
117.50082089179705,1903.699951171875
118.56743600839945,1856.699951171875
119.63384582860272,1805.9000244140625
120.70005039281386,1734.9000244140625
121.76604974143083,1683.199951171875
122.83184391483519,1664.800048828125
123.89743295340486,1570.5999755859375
124.96281689750322,1585.0999755859375
126.02799578748636,1495.300048828125
127.09296966370857,1462.800048828125
128.15773856649867,1382.5999755859375
129.22230253619455,1324.4000244140625
130.28666161311048,1272.5
131.35081583755345,1212.9000244140625
132.414765249825,1158.5
133.47850989022481,1160.0999755859375
134.54204979901988,1093.4000244140625
135.60538501649535,1085.300048828125
136.66851558290364,1021.0999755859375
137.73144153850444,1010.9000244140625
138.79416292353926,989.5999755859375
139.85667977824414,960
140.91899214284422,924.0999755859375
141.9811000575537,923.29998779296875
143.0430035625759,928.4000244140625
144.10470269811231,906.79998779296875
145.16619750435348,887.20001220703125
146.22748802146998,864.0999755859375
147.28857428963602,877.29998779296875
148.3494563490076,863.0999755859375
149.41013423973891,879.20001220703125
150.47060800196778,862.5
151.53087767582292,860.4000244140625
152.59094330143125,816.5
153.65080491890512,827.5
154.71046256834779,838.9000244140625
155.76991628984433,799.5999755859375
156.82916612349436,834.20001220703125
157.88821210936294,873.79998779296875
158.94705428751695,892.4000244140625
160.00569269801963,964.5999755859375
161.06412738090876,1148.800048828125
162.12235837622939,1376.800048828125
163.18038572400837,1753.800048828125
164.23820946425803,2088.89990234375
165.29582963700341,2194
166.35324628222952,2126.10009765625
167.41045943993777,2017.4000244140625
168.4674691501059,1744.5999755859375
169.52427545270439,1561.199951171875
170.58087838770371,1374.4000244140625
171.63727799505432,1146.4000244140625
172.6934743146976,1027.300048828125
173.74946738657491,982.9000244140625
174.80525725060761,950.5999755859375
175.86084394671525,895.79998779296875
176.91622751480463,805.4000244140625
177.97140799477529,732.0999755859375
179.02638542651403,663.29998779296875
180.08115984989854,585
181.13573130480836,573.4000244140625
182.1900998310939,533.20001220703125
183.24426546861469,529.29998779296875
184.29822825721203,496.70001220703125
185.35198823671635,515.70001220703125
186.40554544695078,506.60000610351563
187.45889992773846,494.20001220703125
188.51205171887523,494.89999389648438
189.5650008601624,488.20001220703125
190.61774739138855,462.60000610351563
191.67029135232588,485
192.72263278274659,481.79998779296875
193.77477172241379,486.10000610351563
194.82670821106694,456.79998779296875
195.87844228846188,484.5
196.92997399431806,503.10000610351563
197.98130336836039,487
199.03243045030285,504.60000610351563
200.083355279854,476.5
201.13407789669873,517.4000244140625
202.18459834053465,502.60000610351563
203.23491665102665,530.4000244140625
204.28503286785053,538.4000244140625
205.33494703066026,536.0999755859375
206.38465917910617,549.5
207.43416935282403,596.29998779296875
208.48347759144417,594.29998779296875
209.53258393459691,616.79998779296875
210.58148842188348,636.0999755859375
211.63019109291054,683
212.67869198727021,661.20001220703125
213.726991144551,659.29998779296875
214.775088604325,689.29998779296875
215.82298440615341,681.4000244140625
216.8706785896029,691.20001220703125
217.91817119421466,695.70001220703125
218.96546225952443,727.5999755859375
220.01255182506975,723.0999755859375
221.05943993036635,702.79998779296875
222.10612661491905,672.70001220703125
223.15261191823993,671.4000244140625
224.19889587981743,691.4000244140625
225.24497853913635,642.79998779296875
226.29085993566514,636
227.33654010887221,604.0999755859375
228.38201909822055,594.5999755859375
229.42729694314221,581.29998779296875
230.47237368309288,544.4000244140625
231.51724935748462,542.20001220703125
232.56192400574764,542.4000244140625
233.60639766728673,550.4000244140625
234.65067038150482,524.4000244140625
235.69474218779396,536
236.73861312553527,495.89999389648438
237.78228323410804,510.20001220703125
238.82575255286974,509.89999389648438
239.86902112117787,508.10000610351563
240.9120889783826,481.29998779296875
241.95495616381777,482.10000610351563
242.99762271681357,476.10000610351563
244.04008867668745,480.29998779296875
245.08235408274959,470.5
246.1244189743029,473.79998779296875
247.16628339063755,493.70001220703125
248.20794737103279,511.20001220703125
249.24941095476788,533.5999755859375
250.29067418110571,602.4000244140625
251.33173708930008,719.70001220703125
252.37259971859567,876.79998779296875
253.41326210823536,1041.5999755859375
254.45372429744384,1128.199951171875
255.49398632544035,1159.9000244140625
256.53404823143683,1042.199951171875
257.57391005463069,874.79998779296875
258.61357183421751,700.4000244140625
259.65303360938196,577.5999755859375
260.69229541928871,534.70001220703125
261.73135730310787,480.29998779296875
262.77021929999864,477.5
263.80888144910386,449.89999389648438
264.84734378955909,444.89999389648438
265.88560636049988,456.39999389648438
266.92366920103996,446.89999389648438
267.9615323502876,420.89999389648438
268.99919584735289,426.39999389648438
270.03665973132047,429.29998779296875
271.07392404127677,442.20001220703125
272.1109888162955,397.29998779296875
273.14785409544129,417.20001220703125
274.18451991776965,438.5
275.22098632233428,420.29998779296875
276.25725334816525,444.29998779296875
277.29332103429442,428.20001220703125
278.32918941974458,424.10000610351563
279.36485854352395,430.5
280.40032844463531,447.79998779296875
281.43559916207232,439.5
282.4706707348214,443.29998779296875
283.50554320185074,450
284.540216602134,457.70001220703125
285.57469097462854,486.60000610351563
286.60896635827521,492.10000610351563
287.6430427920186,461.29998779296875
288.67692031479055,471.79998779296875
289.71059896550651,452.10000610351563
290.74407878308375,438.29998779296875
291.777359806425,455.5
292.81044207441846,419.89999389648438
293.84332562596137,421.60000610351563
294.87601049991827,435.20001220703125
295.90849673516095,413.5
296.94078437055396,442.29998779296875
297.97287344493816,435.29998779296875
299.00476399715808,422.20001220703125
300.03645606604368,409.5
301.06794969041584,430.60000610351563
302.09924490909361,413.10000610351563
303.13034176088149,441.5
304.16124028456943,389.10000610351563
305.1919405189492,392.39999389648438
306.222442502798,378.70001220703125
307.25274627488216,363.70001220703125
308.2828518739625,403.79998779296875
309.31275933879624,370.39999389648438
310.34246870811512,379
311.37198002066361,376
312.40129331515891,364.79998779296875
313.43040863031638,401.60000610351563
314.45932600484593,380.89999389648438
315.48804547744476,389.89999389648438
316.51656708679729,411.39999389648438
317.54489087158618,407.5
318.57301687048675,440.29998779296875
319.60094512215619,425.29998779296875
320.62867566524437,389.5
321.65620853840483,382.60000610351563
322.68354378026197,364.20001220703125
323.71068142945296,380.70001220703125
324.73762152458949,375
325.76436410428141,369.79998779296875
326.79090920712588,368.5
327.81725687171638,359.39999389648438
328.84340713663732,377.10000610351563
329.86936004045674,375.29998779296875
330.8951156217463,358.10000610351563
331.92067391905039,366.5
332.9460349709243,385.39999389648438
333.97119881590334,372.70001220703125
334.99616549251732,381.79998779296875
336.02093503928518,370.89999389648438
337.04550749471673,375.60000610351563
338.06988289731453,381.79998779296875
339.09406128557566,407.20001220703125
340.11804269798085,428.10000610351563
341.14182717300719,463.60000610351563
342.16541474912265,526.4000244140625
343.18880546478249,566.5
344.21199935844015,569
345.23499646853088,569.4000244140625
346.25779683349174,511.10000610351563
347.2804004917416,446.70001220703125
348.30280748169571,418.10000610351563
349.3250178417602,402
350.34703161032849,390.29998779296875
351.36884882579034,390
352.39046952652461,386.20001220703125
353.41189375090107,393.79998779296875
354.43312153727675,373.70001220703125
355.45415292401049,375.89999389648438
356.47498794944113,381.10000610351563
357.49562665190388,377.20001220703125
358.51606906973029,376.29998779296875
359.53631524122466,369.89999389648438
360.55636520471126,391.10000610351563
361.576218998478,385.29998779296875
362.59587666081825,360.60000610351563
363.6153382300181,375.10000610351563
364.63460374434362,371
365.65367324206454,371.20001220703125
366.67254676143239,393.29998779296875
367.69122434069686,366.20001220703125
368.70970601810041,380.29998779296875
369.7279918318618,358.60000610351563
370.74608182021075,357.29998779296875
371.7639760213533,373.5
372.78167447349733,360.29998779296875
373.79917721483071,363.79998779296875
374.81648428354674,369.20001220703125
375.8335957178133,360.70001220703125
376.85051155580732,361.20001220703125
377.86723183568211,352.70001220703125
378.88375659558915,335.39999389648438
379.90008587367265,343.79998779296875
380.91621970806045,340.39999389648438
381.932158136884,345.39999389648438
382.94790119825484,341.89999389648438
383.96344893028072,347.20001220703125
384.97880137105676,349.5
385.99395855867624,326.5
387.0089205312197,354
388.02368732675495,358.5
389.03825898334981,337.70001220703125
390.05263553905752,343.5
391.06681703192226,336.39999389648438
392.08080349998454,334.89999389648438
393.09459498126671,349
394.10819151379292,339.39999389648438
395.12159313558004,349.70001220703125
396.13479988461768,333.89999389648438
397.14781179890815,340.20001220703125
398.16062891643014,362.20001220703125
399.17325127516779,331.60000610351563
400.18567891308157,327.60000610351563
401.19791186813563,330.10000610351563
402.20995017827954,353.20001220703125
403.22179388145014,325.10000610351563
404.23344301558427,356.29998779296875
405.24489761860423,341.89999389648438
406.256157728425,346.29998779296875
407.26722338295986,333.29998779296875
408.27809462009827,335.89999389648438
409.28877147773528,342.89999389648438
410.29925399374588,346.60000610351563
411.30954220601052,339.5
412.31963615238783,327
413.3295358707328,339.39999389648438
414.33924139889314,347.5
415.348752774702,337.39999389648438
416.35807003599439,340.89999389648438
417.36719322058889,332
418.3761223662932,343.79998779296875
419.38485751091685,354.20001220703125
420.39339869224932,328.5
421.4017459480765,343.60000610351563
422.4098993161806,343.10000610351563
423.41785883432567,336.29998779296875
424.42562454027211,355.5
425.43319647177304,351.89999389648438
426.44057466656886,343.79998779296875
427.44775916239269,361.70001220703125
428.45474999697581,344.5
429.46154720802588,345.39999389648438
430.46815083326146,349.20001220703125
431.474560910372,329.89999389648438
432.48077747705611,363.60000610351563
433.48680057099773,333.70001220703125
434.4926302298627,349.20001220703125
435.49826649132046,345.60000610351563
436.50370939302593,361
437.50895897263217,346.39999389648438
438.5140152677759,357.60000610351563
439.51887831608292,351.70001220703125
440.52354815518265,335.5
441.52802482268817,338.10000610351563
442.532308356198,353.70001220703125
443.53639879331604,335.89999389648438
444.54029617162814,328.60000610351563
445.54400052871461,340.79998779296875
446.54751190214483,344.60000610351563
447.55083032947732,350.79998779296875
448.553955848276,337.5
449.55688849607577,339.10000610351563
450.55962831042052,326.79998779296875
451.56217532883238,338
452.56452958883892,339.5
453.56669112794589,347.79998779296875
454.56865998365174,347.79998779296875
455.57043619345859,350.89999389648438
456.57201979484853,347.89999389648438
457.57341082529638,323.60000610351563
458.57460932227514,346.29998779296875
459.57561532323962,347
460.57642886564281,341.29998779296875
461.57704998692861,344.39999389648438
462.57747872453183,337.79998779296875
463.57771511587816,354.5
464.57775919838059,359.29998779296875
465.5776110094539,332.29998779296875
466.57727058649289,356.29998779296875
467.57673796689414,346.29998779296875
468.5760131880379,336.70001220703125
469.57509628729895,346.60000610351563
470.57398730204477,327.5
471.57268626963196,329.89999389648438
472.57119322740982,336.10000610351563
473.56950821272039,335.5
474.56763126289479,348.20001220703125
475.56556241525323,345
476.56330170711954,334.89999389648438
477.5608491757921,351.39999389648438
478.55820485857475,320.5
479.55536879275314,345.10000610351563
480.55234101561109,342.5
481.54912156442151,339.60000610351563
482.54571047644822,351.39999389648438
483.54210778894412,347.20001220703125
484.5383135391603,347.60000610351563
485.53432776433874,333.10000610351563
486.53015050170507,360.60000610351563
487.52578178848125,342.89999389648438
488.521221661882,377.70001220703125
489.51647015911294,352.60000610351563
490.511527317376,356.29998779296875
491.50639317384957,342.70001220703125
492.50106776571556,343.89999389648438
493.49555113015049,348
494.48984330431631,357.20001220703125
495.48394432536406,333.60000610351563
496.477854230443,369.39999389648438
497.47157305668588,340.20001220703125
498.46510084122747,357
499.45843762119148,361.79998779296875
500.45158343368166,355.10000610351563
501.44453831580358,346.5
502.43730230465735,352.89999389648438
503.4298754373267,354
504.42225775089173,330.39999389648438
505.41444928242527,326.70001220703125
506.40645006898194,331
507.39826014762366,329.29998779296875
508.38987955538869,328.89999389648438
509.38130832932075,327.70001220703125
510.3725465064399,344
511.36359412377169,343.10000610351563
512.35445121832345,323.20001220703125
513.345117827108,333
514.33559398710713,336.60000610351563
515.32587973531554,343.5
516.31597510870961,319.39999389648438
517.305880144253,341.5
518.29559487891856,332.5
519.2851193496499,342.5
520.27445359339254,322.70001220703125
521.2635976470865,327.60000610351563
522.25255154765728,330.10000610351563
523.24131533202308,337.5
524.22988903709665,323.60000610351563
525.21827269978348,332.5
526.20646635697267,329.20001220703125
527.19447004554968,326.60000610351563
528.18228380239634,333.89999389648438
529.16990766437993,324.20001220703125
530.15734166836046,328.5
531.14458585119428,329.79998779296875
532.13164024971957,311.5
533.11850490077813,324.89999389648438
534.1051798411936,344.29998779296875
535.09166510778778,332.5
536.0779607373679,332.29998779296875
537.06406676674123,327.5
538.04998323269865,324
539.03571017202739,334.5
540.02124762150379,311.79998779296875
541.00659561790053,317.70001220703125
541.99175419797393,317.89999389648438
542.97672339848032,330.79998779296875
543.96150325615963,328.60000610351563
544.94609380775364,319.29998779296875
545.93049508998593,309.89999389648438
546.91470713957824,322.20001220703125
547.89872999324143,324.79998779296875
548.88256368767543,313.20001220703125
549.86620825957834,315.5
550.84966374563555,321.20001220703125
551.83293018252334,309.5
552.81600760691072,324.89999389648438
553.79889605546123,323.29998779296875
554.78159556482933,316.89999389648438
555.76410617165857,338.20001220703125
556.74642791258339,310.60000610351563
557.72856082423277,324.5
558.71050494323026,318.20001220703125
559.692260306183,325
560.67382694969274,310.5
561.65520491036477,324.70001220703125
562.63639422477536,315
563.617394929508,344.60000610351563
564.59820706113169,340.60000610351563
565.5788306562099,469.79998779296875
566.55926575129524,549.79998779296875
567.53951238293848,545.79998779296875
568.51957058766675,532.0999755859375
569.49944040201626,431.39999389648438
570.47912186250869,331.5
571.45861500565115,324.79998779296875
572.43791986795441,315.29998779296875
573.417036485911,303.10000610351563
574.3959648960099,318.79998779296875
575.37470513472908,335.10000610351563
576.35325723854476,327.79998779296875
577.3316212439131,323.70001220703125
578.309797187294,318.20001220703125
579.28778510513439,326.10000610351563
580.26558503387241,315.10000610351563
581.24319700993874,317.89999389648438
582.22062106975318,308.10000610351563
583.1978572497319,321.39999389648438
584.17490558627833,299
585.15176611579591,324.20001220703125
586.12843887466624,305.10000610351563
587.1049238992764,314
588.08122122599343,316.60000610351563
589.05733089119167,320.5
590.03325293122,317
591.00898738242722,308.29998779296875
591.98453428115681,320.89999389648438
592.95989366373578,294.5
593.93506556649481,302.29998779296875
594.91005002574457,322.39999389648438
595.88484707779207,312.60000610351563
596.85945675894072,309.20001220703125
597.83387910547935,309
598.808114153695,329.10000610351563
599.78216193985281,321.39999389648438
600.7560225002253,301.10000610351563
601.729695871074,309.89999389648438
602.70318208864228,318.70001220703125
603.67648118917714,312.89999389648438
604.64959320891285,307.70001220703125
605.62251818407458,286.10000610351563
606.59525615087659,318.5
607.56780714553315,304.29998779296875
608.54017120424214,319.10000610351563
609.51234836320145,306.5
610.48433865859079,315.60000610351563
611.45614212658984,307.39999389648438
612.42775880336558,321.79998779296875
613.39918872508315,326.10000610351563
614.37043192788951,321
615.34148844793526,344.20001220703125
616.31235832134917,323.29998779296875
617.28304158426727,327.39999389648438
618.253538272802,301
619.2238484230711,299.29998779296875
620.19397207117981,314.29998779296875
621.16390925321321,325.60000610351563
622.13366000527276,299.10000610351563
623.103224363429,305.20001220703125
624.07260236375441,309.70001220703125
625.04179404231763,321.60000610351563
626.01079943516561,309.39999389648438
626.97961857835253,321.5
627.94825150791621,298.29998779296875
628.91669825988356,310.29998779296875
629.8849588702833,321.5
630.85303337512414,301.89999389648438
631.8209218104148,311.5
632.7886242121549,312
633.75614061633678,308.89999389648438
634.72347105893823,321.5
635.69061557593523,310.39999389648438
636.65757420329646,313.60000610351563
637.6243469769779,318.70001220703125
638.59093393293,312.29998779296875
639.55733510709615,327
640.5235505354085,321
641.48958025379216,311.39999389648438
642.45542429816669,310.79998779296875
643.4210827044426,294.89999389648438
644.38655550851945,304.10000610351563
645.351842746295,308.79998779296875
646.31694445364883,327.5
647.28186066646231,315.20001220703125
648.24659142060591,329.70001220703125
649.21113675193737,300
650.17549669631444,316.5
651.13967128958211,316.5
652.10366056757266,317.60000610351563
653.067464566122,296.20001220703125
654.03108332104784,327.29998779296875
654.99451686816428,313.70001220703125
655.95776524327266,311.60000610351563
656.920828482178,308.29998779296875
657.88370662066518,313.5
658.84639969451382,325.10000610351563
659.80890773950159,320
660.77123079139164,319.60000610351563
661.733368885938,316.79998779296875
662.69532205889118,305.20001220703125
663.65709034599786,336.39999389648438
664.61867378298484,311
665.58007240558072,305.20001220703125
666.54128624949954,310.70001220703125
667.50231535045532,316.10000610351563
668.46315974414392,309.70001220703125
669.42381946626119,318
670.38429455249025,323.10000610351563
671.34458503851238,324.20001220703125
672.30469095999615,313
673.2646123525974,304.5
674.224349251972,323.5
675.18390169377017,305
676.14326971362243,312.39999389648438
677.10245334716274,296.29998779296875
678.0614526300069,316.10000610351563
679.02026759777618,304.29998779296875
679.97889828607,298.60000610351563
680.93734473048789,291.39999389648438
681.89560696662011,311.39999389648438
682.85368503004611,335.70001220703125
683.81157895634169,303.79998779296875
684.76928878106992,301.39999389648438
