-777.87311982425126,15
-776.63374739947358,10.800000190734863
-775.39461482227671,1.2000000476837158
-774.15572204389719,14
-772.91706901559337,8.3999996185302734
-771.67865568863454,19.700000762939453
-770.44048201429,7.3000001907348633
-769.20254794384346,9.3000001907348633
-767.96485342860433,19.899999618530273
-766.7273984198855,8.1999998092651367
-765.49018286900719,18.5
-764.25320672730777,12.699999809265137
-763.01646994613657,18.100000381469727
-761.77997247685744,16.299999237060547
-760.5437142708488,2.2999999523162842
-759.307695279489,17.700000762939453
-758.07191545417118,10.699999809265137
-756.83637474631723,14.699999809265137
-755.601073107342,24.100000381469727
-754.36601048868215,11.600000381469727
-753.13118684178153,-0.40000000596046448
-751.89660211810587,19.600000381469727
-750.66225626912092,16.600000381469727
-749.42814924630693,18.899999618530273
-748.19428100116238,13.800000190734863
-746.960651485193,21
-745.72726064991912,7.5999999046325684
-744.49410844686827,7.4000000953674316
-743.26119482758622,13.300000190734863
-742.02851974362966,10.699999809265137
-740.79608314656616,10.199999809265137
-739.5638849879706,14.399999618530273
-738.331925219436,9.3000001907348633
-737.10020379257367,7.5
-735.86872065898388,11.5
-734.63747577031063,10.199999809265137
-733.406469078187,16.100000381469727
-732.17570053426061,17.700000762939453
-730.94517009020092,14.199999809265137
-729.71487769768464,9.6999998092651367
-728.48482330838851,20.399999618530273
-727.25500687402564,1.7999999523162842
-726.02542834630549,7.8000001907348633
-724.79608767694481,20.200000762939453
-723.56698481768581,7.0999999046325684
-722.33811972027434,10
-721.10949233647079,9.8000001907348633
-719.88110261805014,7.3000001907348633
-718.652950516791,6.4000000953674316
-717.42503598449366,11.399999618530273
-716.19735897296232,16.100000381469727
-714.96991943401918,12.100000381469727
-713.74271731949739,14.100000381469727
-712.515752581241,13.100000381469727
-711.28902517110146,12.5
-710.06253504095184,10.600000381469727
-708.83628214267264,16.5
-707.610266428148,6.6999998092651367
-706.384487849291,14.300000190734863
-705.15894635801124,4.5999999046325684
-703.93364190623652,3.2000000476837158
-702.70857444590911,7.6999998092651367
-701.48374392898586,8.8000001907348633
-700.25915030741635,8.3999996185302734
-699.03479353318289,6.5999999046325684
-697.81067355827872,5.9000000953674316
-696.58679033470071,13.5
-695.36314381444936,22.200000762939453
-694.1397339495652,-0.30000001192092896
-692.91656069207056,7.6999998092651367
-691.69362399401689,11
-690.47092380745926,6.4000000953674316
-689.24846008447821,8.8000001907348633
-688.02623277714338,11.800000190734863
-686.80424183756077,7.0999999046325684
-685.58248721782911,12.199999809265137
-684.360968870069,4.0999999046325684
-683.13968674641546,2.5999999046325684
-681.91864079900733,23
-680.69783097999425,8.8999996185302734
-679.4772572415477,1.1000000238418579
-678.25691953584283,9.6000003814697266
-677.0368178150693,10.399999618530273
-675.81695203143136,11.300000190734863
-674.59732213714051,12.699999809265137
-673.37792808442282,1.8999999761581421
-672.15876982551163,5.3000001907348633
-670.9398473126621,10.600000381469727
-669.72116049812939,4.0999999046325684
-668.50270933419051,9.3000001907348633
-667.28449377312245,13.899999618530273
-666.0665137672313,9.5
-664.84876926881952,5.8000001907348633
-663.63126023020413,7.5
-662.413986603724,-2.7999999523162842
-661.19694834172151,15.800000190734863
-659.9801453965465,9.8000001907348633
-658.76357772057054,11.300000190734863
-657.54724526617247,3
-656.33114798573843,11.100000381469727
-655.11528583168,13.399999618530273
-653.89965875640155,4.4000000953674316
-652.68426671233283,9.6999998092651367
-651.46910965191455,5.4000000953674316
-650.25418752759469,8.6999998092651367
-649.03950029183216,2
-647.825047897104,9.1000003814697266
-646.61083029589463,5.5999999046325684
-645.39684744069928,8.1999998092651367
-644.18309928402778,12.699999809265137
-642.96958577839359,10.5
-641.75630687633929,11.800000190734863
-640.54326253040745,12.699999809265137
-639.33045269314425,10.100000381469727
-638.117877317125,2.2999999523162842
-636.90553635492142,6.6999998092651367
-635.69342975913059,6.0999999046325684
-634.481557482357,8.1000003814697266
-633.26991947720853,7.9000000953674316
-632.05851569631523,9.6999998092651367
-630.84734609231418,13.399999618530273
-629.63641061784983,6.3000001907348633
-628.4257092255848,6.1999998092651367
-627.21524186819988,16.700000762939453
-626.00500849836862,12.100000381469727
-624.79500906879366,-0.5
-623.58524353217763,-1.2999999523162842
-622.37571184124863,7.5999999046325684
-621.1664139487275,12.699999809265137
-619.95734980736415,7.6999998092651367
-618.74851936991581,7.6999998092651367
-617.539922589136,-0.30000001192092896
-616.33155941781479,13.800000190734863
-615.12342980873473,0.40000000596046448
-613.91553371470036,-1.7999999523162842
-612.70787108852346,9.1000003814697266
-611.50044188302672,7.4000000953674316
-610.29324605104739,3.9000000953674316
-609.08628354543725,-3.2000000476837158
-607.87955431905175,6.9000000953674316
-606.67305832475722,14.300000190734863
-605.46679551544912,10.800000190734863
-604.26076584400835,16.200000762939453
-603.05496926335218,2.2000000476837158
-601.849405726387,3.0999999046325684
-600.64407518604821,21.899999618530273
-599.438977595275,-0.20000000298023224
-598.234112907021,11.600000381469727
-597.02948107425073,5.9000000953674316
-595.82508204993974,13.100000381469727
-594.62091578707441,-4.3000001907348633
-593.41698223864842,13
-592.21328135768454,4.9000000953674316
-591.009813097191,2.2000000476837158
-589.80657741020877,7.8000001907348633
-588.60357424978247,7.0999999046325684
-587.4008035689676,14.399999618530273
-586.19826532083425,-5.4000000953674316
-584.99595945845977,5.4000000953674316
-583.793885934936,8.6000003814697266
-582.5920447033659,2.4000000953674316
-581.39043571686307,4.8000001907348633
-580.18905892855764,12.600000381469727
-578.98791429158518,5.9000000953674316
-577.78700175909034,6.6999998092651367
-576.58632128423778,8.3000001907348633
-575.38587282020308,-2.4000000953674316
-574.1856563201618,7.3000001907348633
-572.98567173731681,17.899999618530273
-571.78591902487278,8.1999998092651367
-570.58639813603986,15.199999809265137
-569.38710902406274,7.5
-568.18805164217156,1.6000000238418579
-566.98922594362557,-3.2999999523162842
-565.790631881684,3.2999999523162842
-564.59226940962253,-3.7000000476837158
-563.39413848073127,4.5999999046325684
-562.19623904831133,-7.3000001907348633
-560.99857106566742,11.699999809265137
-559.80113448612792,6.5
-558.60392926301938,11.399999618530273
-557.40695534968654,-1
-556.21021269949415,6.9000000953674316
-555.0137012658015,-3.2000000476837158
-553.81742100199153,6.8000001907348633
-552.62137186145628,-0.89999997615814209
-551.4255537975896,5.8000001907348633
-550.22996676381626,7.0999999046325684
-549.03461071355377,-2.5
-547.8394856002451,2
-546.64459137733138,0.30000001192092896
-545.449927998272,-0.60000002384185791
-544.25549541654073,18.5
-543.06129358562066,4.6999998092651367
-541.86732245900566,-0.5
-540.67358199019873,-3.4000000953674316
-539.48007213271376,10.100000381469727
-538.28679284007922,2.0999999046325684
-537.09374406584539,3.2000000476837158
-535.900925763548,8.5
-534.70833788675736,6.6999998092651367
-533.51598038904558,8.8000001907348633
-532.32385322399932,7.4000000953674316
-531.13195634520889,5.1999998092651367
-529.94028970629006,1.1000000238418579
-528.74885326085314,11.300000190734863
-527.55764696253573,-5.4000000953674316
-526.36667076497724,4.8000001907348633
-525.17592462183165,4.0999999046325684
-523.985408486762,7.3000001907348633
-522.79512231344415,8.3999996185302734
-521.60506605556839,-0.89999997615814209
-520.41523966682871,-4.8000001907348633
-519.22564310093912,5.1999998092651367
-518.0362763116209,0.89999997615814209
-516.84713925260257,-2.4000000953674316
-515.65823187763453,-2.7999999523162842
-514.46955414046715,1.5
-513.28110599486718,-2
-512.09288739461954,-6.8000001907348633
-510.90489829350736,0.40000000596046448
-509.71713864533194,1.1000000238418579
-508.52960840390369,-5.9000000953674316
-507.3423075230512,6.9000000953674316
-506.15523595660488,-0.800000011920929
-504.96839365841697,-1
-503.78178058233607,4.0999999046325684
-502.59539668223624,1.6000000238418579
-501.4092419119952,9
-500.223316225507,0.699999988079071
-499.0376195766712,-1.1000000238418579
-497.85215191940188,5.6999998092651367
-496.666913207624,7.3000001907348633
-495.48190339527719,2.9000000953674316
-494.29712243630638,0.30000001192092896
-493.11257028467116,13.699999809265137
-491.928246894342,2.2999999523162842
-490.7441522193003,6.5
-489.56028621353471,2.7999999523162842
-488.37664883105754,9.8999996185302734
-487.19324002587746,-0.30000001192092896
-486.01005975202315,15.399999618530273
-484.8271079635324,-0.20000000298023224
-483.6443846144557,1.6000000238418579
-482.46188965885085,3.0999999046325684
-481.27962305079018,-6.0999999046325684
-480.09758474435512,1
-478.91577469364165,1
-477.73419285275304,-1.3999999761581421
-476.55283917580709,-7.8000001907348633
-475.37171361693436,1.7000000476837158
-474.19081613026719,5
-473.010146669958,7.5
-471.82970519017181,1.7999999523162842
-470.64949164507379,-2.5999999046325684
-469.46950598885633,0.40000000596046448
-468.28974817570452,-1.5
-467.1102181598344,-1.2000000476837158
-465.93091589545475,-7
-464.75184133679977,8.6999998092651367
-463.57299443810552,-3.7000000476837158
-462.39437515362624,-7.4000000953674316
-461.2159834376198,-1.5
-460.03781924436043,-1.7999999523162842
-458.85988252813513,0.800000011920929
-457.68217324323632,5.9000000953674316
-456.50469134396917,-0.10000000149011612
-455.32743678465886,-5
-454.15040951962692,-1.7999999523162842
-452.97360950321672,0.800000011920929
-451.79703668977709,-1
-450.62069103367321,1.2999999523162842
-449.4445724892721,3.5999999046325684
-448.26868101096989,-5.3000001907348633
-447.09301655315357,-2.5
-445.9175790702302,0.60000002384185791
-444.74236851661954,1.3999999761581421
-443.56738484675407,-11.899999618530273
-442.39262801506811,-4.5
-441.21809797601236,8.3999996185302734
-440.0437946840575,-5.8000001907348633
-438.86971809366878,0.20000000298023224
-437.69586815933872,-0.800000011920929
-436.52224483555256,1.2999999523162842
-435.34884807682647,4.0999999046325684
-434.17567783767481,10
-433.00273407262466,-0.5
-431.83001673621948,5.1999998092651367
-430.65752578300453,0.89999997615814209
-429.4852611675542,-6.5999999046325684
-428.31322284443013,-0.30000001192092896
-427.14141076821943,5.5999999046325684
-425.96982489351649,10.300000190734863
-424.79846517493388,-1.5
-423.62733156708055,-0.20000000298023224
-422.45642402459453,0.699999988079071
-421.28574250211022,1.7000000476837158
-420.1152869542766,-5.5999999046325684
-418.94505733575534,-11.800000190734863
-417.77505360122632,2.9000000953674316
-416.60527570536397,-9
-415.43572360287,4.5999999046325684
-414.26639724844608,-6.8000001907348633
-413.09729659681216,-0.800000011920929
-411.92842160268992,2.4000000953674316
-410.7597722208302,-7.5
-409.59134840596926,-5.0999999046325684
-408.42315011287792,2
-407.2551772963252,0.5
-406.087429911091,-2.5
-404.9199079119735,3.5999999046325684
-403.75261125377619,6.4000000953674316
-402.58553989131542,-0.60000002384185791
-401.41869377941293,-1
-400.25207287291232,-3.5999999046325684
-399.08567712666627,-7.1999998092651367
-397.919506495522,1.5
-396.75356093436312,-9
-395.58784039806596,9.5
-394.42234484151959,-3.0999999046325684
-393.25707421963307,1.5
-392.09202848732275,-15.199999809265137
-390.92720759950862,6.9000000953674316
-389.76261151112521,-7.4000000953674316
-388.59824017713072,-7.4000000953674316
-387.43409355247422,-8.8999996185302734
-386.27017159212846,-10.800000190734863
-385.10647425107527,1.7999999523162842
-383.94300148430193,-1
-382.77975324681393,-5.5999999046325684
-381.616729493624,-2.5999999046325684
-380.453930179754,-10.5
-379.29135526024038,-5.6999998092651367
-378.129004690134,-6.5
-376.96687842448227,-3.7999999523162842
-375.80497641835791,-10.5
-374.64329862683917,-2.4000000953674316
-373.4818450050152,-3.7999999523162842
-372.32061550798426,-9
-371.15961009086277,-3.4000000953674316
-369.99882870877082,-10.600000381469727
-368.83827131683756,5.5
-367.677937870214,0.60000002384185791
-366.51782832404751,2.5999999046325684
-365.3579426335109,-0.20000000298023224
-364.19828075377518,7.3000001907348633
-363.03884264003136,-1.8999999761581421
-361.87962824747046,-3.2000000476837158
-360.7206375313126,-3.9000000953674316
-359.56187044677063,2.9000000953674316
-358.403326949081,-6.8000001907348633
-357.24500699348027,7.5999999046325684
-356.08691053522307,2.9000000953674316
-354.92903752956954,-3.5
-353.771387931798,3.9000000953674316
-352.61396169719228,-2.2000000476837158
-351.45675878105067,-7
-350.29977913867333,1.7999999523162842
-349.14302272538407,-5.0999999046325684
-347.98648949651215,3.4000000953674316
-346.83017940739046,7.1999998092651367
-345.67409241337191,8.6000003814697266
-344.51822846982031,-2.5
-343.36258753210313,4.3000001907348633
-342.20716955560965,1.7000000476837158
-341.05197449572188,5.8000001907348633
-339.89700230785638,2.5999999046325684
-338.74225294741518,-9.3999996185302734
-337.58772636983667,8.1999998092651367
-336.43342253054652,-4.9000000953674316
-335.27934138499768,-0.699999988079071
-334.12548288865037,3.4000000953674316
-332.97184699696481,-9
-331.81843366542853,-0.60000002384185791
-330.66524284953266,-3.5
-329.51227450476654,-0.5
-328.35952858665769,-11.800000190734863
-327.20700505071909,-6.0999999046325684
-326.05470385248555,-2.2000000476837158
-324.90262494750459,-0.40000000596046448
-323.75076829132558,3.5
-322.59913383951789,6
-321.44772154765633,1.1000000238418579
-320.29653137132846,-8.3000001907348633
-319.14556326613092,6.5999999046325684
-317.99481718767311,4.8000001907348633
-316.84429309157531,-3.2999999523162842
-315.69399093346874,-8
-314.54391066899007,4.8000001907348633
-313.39405225379596,-5.5
-312.24441564354129,-4.9000000953674316
-311.09500079390455,-5.6999998092651367
-309.94580766056788,-5.4000000953674316
-308.79683619922253,-7.0999999046325684
-307.64808636558337,14.699999809265137
-306.49955811535619,2.5999999046325684
-305.35125140426862,-4
-304.203166188061,-2
-303.05530242247733,7.0999999046325684
-301.90766006327794,-4.9000000953674316
-300.76023906623413,9.6000003814697266
-299.61303938712081,-4.1999998092651367
-298.46606098173288,-2.9000000953674316
-297.31930380586527,12.100000381469727
-296.17276781533837,4.3000001907348633
-295.02645296596893,-1.8999999761581421
-293.88035921359551,0.800000011920929
-292.73448651404942,14.399999618530273
-291.58883482319834,6.5999999046325684
-290.44340409690449,-1.7999999523162842
-289.29819429103554,6.3000001907348633
-288.15320536148647,5.8000001907348633
-287.0084372641486,-3.7000000476837158
-285.86388995493689,10.600000381469727
-284.7195633897627,0.800000011920929
-283.57545752455371,-1.3999999761581421
-282.431572315254,10.399999618530273
-281.28790771781496,12.899999618530273
-280.1444636881879,15.100000381469727
-279.00124018235692,10.300000190734863
-277.8582371562934,11.100000381469727
-276.71545456599597,2.5
-275.57289236746692,14.5
-274.43055051671945,7
-273.28842896977221,8.8000001907348633
-272.14652768267115,13
-271.00484661145128,8.6999998092651367
-269.86338571217493,11.199999809265137
-268.72214494090622,16.100000381469727
-267.581124253722,3
-266.44032360671372,16.200000762939453
-265.29974295597458,8.5
-264.159382257616,6.5999999046325684
-263.01924146776037,19.399999618530273
-261.87932054252815,11.899999618530273
-260.73961943807444,9.6000003814697266
-259.60013811053796,34.900001525878906
-258.46087651608468,11.699999809265137
-257.32183461088971,19.299999237060547
-256.18301235113358,19
-255.04440969300595,24.299999237060547
-253.90602659271462,29.600000381469727
-252.76786300647473,13
-251.62991889051045,26.299999237060547
-250.49219420105146,24.5
-249.35468889435288,21.700000762939453
-248.217402926668,21.600000381469727
-247.08033625425924,26.399999618530273
-245.94348883341445,30.700000762939453
-244.80686062040877,20.899999618530273
-243.67045157154826,32.5
-242.53426164314442,31.600000381469727
-241.39829079150877,27.799999237060547
-240.26253897297829,34.299999237060547
-239.12700614388814,40
-237.99169226059348,34.700000762939453
-236.85659727945676,33.5
-235.72172115684771,35.900001525878906
-234.58706384914331,44.700000762939453
-233.4526253127442,47.200000762939453
-232.31840550405468,48.400001525878906
-231.18440437947902,52.200000762939453
-230.05062189545242,36.700000762939453
-228.91705800840282,50
-227.78371267477996,49.400001525878906
-226.65058585103725,48.5
-225.51767749363898,40
-224.38498755906403,55.5
-223.2525160037967,40.799999237060547
-222.1202627843395,74.699996948242188
-220.98822785719858,58.599998474121094
-219.85641117888918,79.4000015258789
-218.7248127059429,86.0999984741211
-217.59343239489681,74.800003051757813
-216.46227020230072,81.4000015258789
-215.3313260847226,72.0999984741211
-214.20059999872137,69.5999984741211
-213.07009190087956,82.800003051757813
-211.9398017477979,72.699996948242188
-210.80972949606621,77.9000015258789
-209.67987510230523,65.9000015258789
-208.5502385231357,77.699996948242188
-207.42081971518564,81.4000015258789
-206.29161863510308,66.0999984741211
-205.16263523954149,65.300003051757813
-204.03386948516163,81.4000015258789
-202.90532132864428,79.800003051757813
-201.77699072666474,81.800003051757813
-200.64887763592742,66.5
-199.52098201313311,71.699996948242188
-198.39330381500076,67.5
-197.26584299825117,66.5999984741211
-196.13859951962695,54.5
-195.01157333587253,55.900001525878906
-193.88476440374143,68
-192.75817268001083,56.900001525878906
-191.63179812144881,58.799999237060547
-190.50564068485255,67
-189.3797003270156,57.200000762939453
-188.25397700474423,69.5
-187.12847067486291,65.199996948242188
-186.00318129420339,63.599998474121094
-184.87810881960104,69.199996948242188
-183.75325320790944,70.300003051757813
-182.62861441598398,81.5999984741211
-181.50419240070187,75.0999984741211
-180.37998711894033,85.9000015258789
-179.25599852759296,95.699996948242188
-178.13222658356062,104.59999847412109
-177.00867124376236,103.90000152587891
-175.88533246510815,125.19999694824219
-174.76221020454068,149.69999694824219
-173.63930441900084,171.80000305175781
-172.51661506544224,181
-171.39414210082759,209.30000305175781
-170.27188548212871,228.39999389648438
-169.14984516633558,266.79998779296875
-168.02802111043638,264.70001220703125
-166.90641327144112,283.10000610351563
-165.78502160636344,266
-164.66384607223154,281.70001220703125
-163.54288662607541,286.39999389648438
-162.4221432249451,282.89999389648438
-161.30161582589426,259.79998779296875
-160.18130438598928,272
-159.06120886230929,271.5
-157.94132921194432,250.69999694824219
-156.82166539198624,246.5
-155.70221735953965,246.30000305175781
-154.58298507173095,246.19999694824219
-153.46396848568111,262
-152.34516755853474,256.70001220703125
-151.22658224743282,247.30000305175781
-150.10821250953813,260
-148.99005830202077,274.70001220703125
-147.87211958205626,272.20001220703125
-146.75439630683832,286.10000610351563
-145.63688843355885,311.89999389648438
-144.51959591943705,306.5
-143.40251872168847,317.60000610351563
-142.28565679753956,338.39999389648438
-141.16901010423499,348.60000610351563
-140.05257859902849,377.79998779296875
-138.93636223917383,366.79998779296875
-137.82036098194294,386.20001220703125
-136.70457478462595,396.20001220703125
-135.58900360449843,431.79998779296875
-134.47364739887416,461.29998779296875
-133.35850612506329,447.39999389648438
-132.24357974038321,481.5
-131.12886820217136,493.5
-130.01437146776334,534.0999755859375
-128.90008949451476,533.70001220703125
-127.78602223979033,559
-126.67216966095839,578.5999755859375
-125.55853171540366,615.5999755859375
-124.44510836051813,621.5
-123.33189955371017,628.5999755859375
-122.2189052523845,646.9000244140625
-121.10612541397313,693.5999755859375
-119.9935599959008,697.29998779296875
-118.88120895561769,732.0999755859375
-117.76907225057403,731.70001220703125
-116.65714983823818,730.4000244140625
-115.54544167607855,734.70001220703125
-114.43394772158354,779.9000244140625
-113.32266793224335,771.0999755859375
-112.21160226556458,788.5999755859375
-111.10075067906291,814.79998779296875
-109.99011313026131,815.29998779296875
-108.87968957669545,818.4000244140625
-107.76947997590833,860.9000244140625
-106.65948428545926,860.0999755859375
-105.54970246290759,908.70001220703125
-104.44013446582903,869.70001220703125
-103.33078025181567,891.4000244140625
-102.22163977845048,933.5999755859375
-101.11271300335284,939.29998779296875
-100.00399988412755,959.79998779296875
-98.8955003784049,959.20001220703125
-97.787214443818812,979.4000244140625
-96.679142038015925,1000
-95.571283118651991,1042.5999755859375
-94.46363764339003,1099.0999755859375
-93.356205569909434,1070.4000244140625
-92.248986855895055,1172.5999755859375
-91.141981459042654,1155
-90.035189337055272,1207.9000244140625
-88.928610447654137,1221.800048828125
-87.8222447485623,1308.300048828125
-86.716092197515536,1387
-85.610152752264185,1466.0999755859375
-84.504426370558576,1499.5999755859375
-83.3989130101636,1489.0999755859375
-82.29361262886232,1439.9000244140625
-81.188525184439641,1363.699951171875
-80.083650634691367,1342
-78.978988937416943,1374.0999755859375
-77.8745400504431,1420.5999755859375
-76.7703039315893,1493.4000244140625
-75.666280538693172,1624.4000244140625
-74.56246982959965,1694
-73.45887176217002,1772.699951171875
-72.355486294265575,1775.0999755859375
-71.2523133837658,1701.300048828125
-70.149352988557439,1616.699951171875
-69.046605066534539,1512.9000244140625
-67.944069575602043,1475.800048828125
-66.84174647367945,1429.199951171875
-65.739635718693535,1420.5
-64.63773726857471,1418
-63.5360510812734,1502.0999755859375
-62.434577114750937,1493.800048828125
-61.3333153269632,1637.800048828125
-60.232265675895178,1790.800048828125
-59.131428119522752,1982.0999755859375
-58.030802615854554,2383.60009765625
-56.930389122886481,2744.89990234375
-55.830187598636257,3097.699951171875
-54.730198001132521,3196.89990234375
-53.630420288413006,3097.89990234375
-52.530854418515446,2865.89990234375
-51.431500349504859,2637.60009765625
-50.332358039440805,2545.89990234375
-49.233427446402857,2580.89990234375
-48.134708528470583,2941.199951171875
-47.036201243741743,3606
-45.937905550323194,4581
-44.839821406334522,5979.2001953125
-43.74194876988804,7613.39990234375
-42.64428759913244,8792
-41.5468378522055,9281.900390625
-40.449599487265004,9222.2998046875
-39.352572462472381,8931.599609375
-38.255756736005424,8690
-37.159152266047386,8238.599609375
-36.062759010790614,7124.89990234375
-34.966576928443828,5742.7998046875
-33.8706059772212,4924.89990234375
-32.774846115338732,5003.5
-31.679297301039696,6776.5
-30.583959492563736,10043.400390625
-29.488832648166863,12260.2998046875
-28.393916726110547,12659.7998046875
-27.299211684672628,10570.099609375
-26.204717482129126,7237.7998046875
-25.110434076774254,5088.7001953125
-24.016361426916774,4241.60009765625
-22.922499490865448,3930.300048828125
-21.828848226945411,3691.699951171875
-20.735407593489072,3403.5
-19.642177548834297,3161.60009765625
-18.549158051340783,2838.800048828125
-17.456349059368222,2778.39990234375
-16.363750531281767,2781.10009765625
-15.271362425470215,2823.10009765625
-14.179184700326005,2799
-13.087217314247027,2900.199951171875
-11.995460225642091,2975
-10.903913392940012,3077.699951171875
-9.8125767745696066,3151.300048828125
-8.7214503289651475,3250.199951171875
-7.6305340145827358,3379.89990234375
-6.5398277898821107,3357.10009765625
-5.4493316133357439,2907.699951171875
-4.3590454434179264,2034.800048828125
-3.26896923861932,1050.800048828125
-2.1791029574433196,290.5
-1.0894465583987767,55.099998474121094
-3.637978807091713E-12,37.900001525878906
1.0892367592168739,285.10000610351563
2.1782637607157085,1052.9000244140625
3.2670810459494533,1944.9000244140625
4.3556886563619628,2850.300048828125
5.4440866333861777,3284.300048828125
6.5322750184368488,3359.699951171875
7.6202538529305457,3327.5
8.7080231782692863,3218.5
9.7955830358478124,3186.699951171875
10.882933467048133,3152.5
11.970074513241343,3093.199951171875
13.0570062157949,3034
14.143728616063527,3008
15.230241755389216,3020.89990234375
16.316545675103043,2993.39990234375
17.402640416532449,3089.89990234375
18.488526020995778,3308.39990234375
19.574202529791364,3686.60009765625
20.659669984221182,3988.800048828125
21.744928425567196,4313.5
22.82997789510955,4615.2001953125
23.914818434106564,5348.2998046875
24.99945008382565,7297.5
26.083872885503297,10789.599609375
27.168086880381452,13744.400390625
28.252092109691148,14379.099609375
29.33588861464159,12586.599609375
30.419476436449258,8754.7001953125
31.502855616305169,6144.7001953125
32.586026195402155,5612.10009765625
33.668988214920319,6231.39990234375
34.751741716028846,7705.60009765625
35.834286739884192,9201.7001953125
36.916623327637353,10095.5
37.998751520428414,10525.2001953125
39.080671359392,10808.599609375
40.162382885640909,11117.2998046875
41.243886140291579,10813
42.325181164447713,9927.7998046875
43.406267999200281,8175.2001953125
44.4871466856257,6296.10009765625
45.5678172648004,4945.2998046875
46.648279777786229,4038.199951171875
47.72853426563961,3375
48.8085807694024,3138.800048828125
49.888419330107354,3120.89990234375
50.968049988779967,3415.89990234375
52.047472786436629,3743.300048828125
53.126687764075541,3979.300048828125
54.205694962698544,4103.10009765625
55.284494423289289,3808.300048828125
56.363086186827786,3383
57.44147029427404,2896.60009765625
58.519646786589874,2540.10009765625
59.597615704718919,2273.10009765625
60.67537708960117,2065.39990234375
61.752930982163889,2001.199951171875
62.83027742332888,1923.4000244140625
63.90741645399612,1913.0999755859375
64.984348115074681,1903.4000244140625
66.061072447448169,1905.199951171875
67.13758949199655,1993.5
68.213899289597975,2075.699951171875
69.29000188109967,2196.800048828125
70.36589730736705,2339.800048828125
71.441585609234608,2406
72.517066827535018,2421.5
73.592341003088222,2361.199951171875
74.667408176715981,2268.89990234375
75.742268389207311,2113.10009765625
76.816921681369422,2018.9000244140625
77.891368093980418,1935
78.965607667816585,1909.9000244140625
80.039640443639655,1919.5
81.113466462209544,2053
82.187085764271615,2143.5
83.260498390560315,2215.39990234375
84.333704381804637,2170
85.40670377871902,2081
86.479496622014267,1952.800048828125
87.552082952388446,1874.199951171875
88.624462810528712,1801
89.6966362371113,1735.800048828125
90.76860327281247,1792.0999755859375
91.840363958286616,1735.5999755859375
92.911918334189977,1687.9000244140625
93.983266441158776,1621
95.054408319829236,1586.199951171875
96.12534401081939,1550.9000244140625
97.19607355474,1522
98.2665969922,1496.300048828125
99.336914363786491,1504.0999755859375
100.40702571009024,1455.9000244140625
101.47693107168197,1457.699951171875
102.54663048912334,1446.4000244140625
103.61612400297781,1415.5
104.68541165378701,1411.0999755859375
105.75449348208713,1394.5
106.82336952840706,1361.800048828125
107.89203983326297,1351.5
108.96050443715831,1340.0999755859375
110.02876338060378,1339.800048828125
111.09681670407736,1305.4000244140625
112.16466444806247,1298.5
113.23230665302981,1259.800048828125
114.2997433594428,1296.199951171875
115.36697460774849,1266.699951171875
116.43400043838665,1233.300048828125
117.50082089179705,1216.5
118.56743600839945,1206
119.63384582860272,1168.199951171875
120.70005039281386,1134.0999755859375
121.76604974143083,1146.4000244140625
122.83184391483519,1115.5999755859375
123.89743295340486,1053.199951171875
124.96281689750322,1049.4000244140625
126.02799578748636,1010.0999755859375
127.09296966370857,977.70001220703125
128.15773856649867,926.5999755859375
129.22230253619455,899.70001220703125
130.28666161311048,868.70001220703125
131.35081583755345,839.29998779296875
132.414765249825,837.5
133.47850989022481,799.0999755859375
134.54204979901988,765
135.60538501649535,749.79998779296875
136.66851558290364,710.5
137.73144153850444,680.29998779296875
138.79416292353926,660.4000244140625
139.85667977824414,653.9000244140625
140.91899214284422,639.5999755859375
141.9811000575537,618.0999755859375
143.0430035625759,570.5
144.10470269811231,583.5
145.16619750435348,563.79998779296875
146.22748802146998,542.79998779296875
147.28857428963602,522.29998779296875
148.3494563490076,557.29998779296875
149.41013423973891,504.5
150.47060800196778,498.79998779296875
151.53087767582292,492.70001220703125
152.59094330143125,502
153.65080491890512,502.10000610351563
154.71046256834779,495
155.76991628984433,500.39999389648438
156.82916612349436,511.10000610351563
157.88821210936294,542.4000244140625
158.94705428751695,563.70001220703125
160.00569269801963,544.79998779296875
161.06412738090876,602.0999755859375
162.12235837622939,589.29998779296875
163.18038572400837,591.29998779296875
164.23820946425803,597
165.29582963700341,608.4000244140625
166.35324628222952,606
167.41045943993777,578.4000244140625
168.4674691501059,523.4000244140625
169.52427545270439,482.5
170.58087838770371,449.70001220703125
171.63727799505432,389
172.6934743146976,356.70001220703125
173.74946738657491,309.70001220703125
174.80525725060761,299.20001220703125
175.86084394671525,287.20001220703125
176.91622751480463,239.30000305175781
177.97140799477529,244.10000610351563
179.02638542651403,212
180.08115984989854,207.60000610351563
181.13573130480836,197.60000610351563
182.1900998310939,179.39999389648438
183.24426546861469,174.5
184.29822825721203,162.30000305175781
185.35198823671635,163.39999389648438
186.40554544695078,167.30000305175781
187.45889992773846,169.69999694824219
188.51205171887523,157.30000305175781
189.5650008601624,137.60000610351563
190.61774739138855,155.10000610351563
191.67029135232588,167.60000610351563
192.72263278274659,151.30000305175781
193.77477172241379,143.10000610351563
194.82670821106694,142.60000610351563
195.87844228846188,153.39999389648438
196.92997399431806,166
197.98130336836039,161.5
199.03243045030285,162
200.083355279854,156.80000305175781
201.13407789669873,171.30000305175781
202.18459834053465,170.5
203.23491665102665,176.89999389648438
204.28503286785053,173.60000610351563
205.33494703066026,190.30000305175781
206.38465917910617,193.10000610351563
207.43416935282403,189.10000610351563
208.48347759144417,190.5
209.53258393459691,201.89999389648438
210.58148842188348,202.80000305175781
211.63019109291054,191.80000305175781
212.67869198727021,197.89999389648438
213.726991144551,192.10000610351563
214.775088604325,192.39999389648438
215.82298440615341,179.80000305175781
216.8706785896029,196.10000610351563
217.91817119421466,169.39999389648438
218.96546225952443,187.30000305175781
220.01255182506975,164.39999389648438
221.05943993036635,157.39999389648438
222.10612661491905,156
223.15261191823993,150.80000305175781
224.19889587981743,148.19999694824219
225.24497853913635,128.69999694824219
226.29085993566514,143.69999694824219
227.33654010887221,134.69999694824219
228.38201909822055,119.69999694824219
229.42729694314221,119.09999847412109
230.47237368309288,118.80000305175781
231.51724935748462,131.10000610351563
232.56192400574764,109.80000305175781
233.60639766728673,107.40000152587891
234.65067038150482,108.69999694824219
235.69474218779396,98.5
236.73861312553527,101.69999694824219
237.78228323410804,109.5
238.82575255286974,102.80000305175781
239.86902112117787,99.0999984741211
240.9120889783826,96.5999984741211
241.95495616381777,94.800003051757813
242.99762271681357,97.5
244.04008867668745,98.9000015258789
245.08235408274959,110.59999847412109
246.1244189743029,112.90000152587891
247.16628339063755,86.300003051757813
248.20794737103279,95.300003051757813
249.24941095476788,98.300003051757813
250.29067418110571,83.4000015258789
251.33173708930008,98.5
252.37259971859567,92.5
253.41326210823536,90
254.45372429744384,70.800003051757813
255.49398632544035,72
256.53404823143683,66.300003051757813
257.57391005463069,66.300003051757813
258.61357183421751,78.5
259.65303360938196,58.299999237060547
260.69229541928871,59.099998474121094
261.73135730310787,59.200000762939453
262.77021929999864,70.0999984741211
263.80888144910386,45
264.84734378955909,62.200000762939453
265.88560636049988,67.4000015258789
266.92366920103996,46.400001525878906
267.9615323502876,57.299999237060547
268.99919584735289,51.700000762939453
270.03665973132047,50.200000762939453
271.07392404127677,56.900001525878906
272.1109888162955,44.799999237060547
273.14785409544129,46.200000762939453
274.18451991776965,57.900001525878906
275.22098632233428,42.099998474121094
276.25725334816525,59.299999237060547
277.29332103429442,50.599998474121094
278.32918941974458,45.900001525878906
279.36485854352395,47.700000762939453
280.40032844463531,43.799999237060547
281.43559916207232,39.5
282.4706707348214,38
283.50554320185074,30.399999618530273
284.540216602134,37.900001525878906
285.57469097462854,49.099998474121094
286.60896635827521,46.700000762939453
287.6430427920186,35.900001525878906
288.67692031479055,40
289.71059896550651,33.299999237060547
290.74407878308375,27.399999618530273
291.777359806425,36.700000762939453
292.81044207441846,27.5
293.84332562596137,26.899999618530273
294.87601049991827,23
295.90849673516095,21.100000381469727
296.94078437055396,24.299999237060547
297.97287344493816,35.099998474121094
299.00476399715808,16.299999237060547
300.03645606604368,15.300000190734863
301.06794969041584,19.5
302.09924490909361,13.100000381469727
303.13034176088149,36.400001525878906
304.16124028456943,3.2000000476837158
305.1919405189492,20.600000381469727
306.222442502798,7
307.25274627488216,8
308.2828518739625,26.700000762939453
309.31275933879624,7.5999999046325684
310.34246870811512,22
311.37198002066361,11.699999809265137
312.40129331515891,19.100000381469727
313.43040863031638,22.899999618530273
314.45932600484593,17.700000762939453
315.48804547744476,15.600000381469727
316.51656708679729,26.100000381469727
317.54489087158618,12.600000381469727
318.57301687048675,26.100000381469727
319.60094512215619,28.899999618530273
320.62867566524437,16.200000762939453
321.65620853840483,17.600000381469727
322.68354378026197,19.600000381469727
323.71068142945296,14.399999618530273
324.73762152458949,10.5
325.76436410428141,2.7999999523162842
326.79090920712588,8.6000003814697266
327.81725687171638,7
328.84340713663732,7.1999998092651367
329.86936004045674,-10.800000190734863
330.8951156217463,4.5
331.92067391905039,0.800000011920929
332.9460349709243,5.8000001907348633
333.97119881590334,9.1000003814697266
334.99616549251732,13.899999618530273
336.02093503928518,1.2000000476837158
337.04550749471673,2.9000000953674316
338.06988289731453,12.100000381469727
339.09406128557566,20.399999618530273
340.11804269798085,17.799999237060547
341.14182717300719,21
342.16541474912265,31.700000762939453
343.18880546478249,19.600000381469727
344.21199935844015,17.899999618530273
345.23499646853088,34.299999237060547
346.25779683349174,19.299999237060547
347.2804004917416,4.8000001907348633
348.30280748169571,10.5
349.3250178417602,13.600000381469727
350.34703161032849,7.1999998092651367
351.36884882579034,-11.600000381469727
352.39046952652461,-1.2000000476837158
353.41189375090107,1.7999999523162842
354.43312153727675,2.7000000476837158
355.45415292401049,-7.9000000953674316
356.47498794944113,1.8999999761581421
357.49562665190388,-3.0999999046325684
358.51606906973029,1.2000000476837158
359.53631524122466,-6.3000001907348633
360.55636520471126,5.8000001907348633
361.576218998478,-4
362.59587666081825,-10.899999618530273
363.6153382300181,-2.7000000476837158
364.63460374434362,-0.20000000298023224
365.65367324206454,-3.0999999046325684
366.67254676143239,-7.4000000953674316
367.69122434069686,-2.7000000476837158
368.70970601810041,-2.7999999523162842
369.7279918318618,-16
370.74608182021075,-9.8000001907348633
371.7639760213533,-10
372.78167447349733,-7.1999998092651367
373.79917721483071,-6.3000001907348633
374.81648428354674,-7.5999999046325684
375.8335957178133,-8.8999996185302734
376.85051155580732,1.2999999523162842
377.86723183568211,-9.3000001907348633
378.88375659558915,-13.600000381469727
379.90008587367265,-11.5
380.91621970806045,-4.8000001907348633
381.932158136884,-7.9000000953674316
382.94790119825484,-6.4000000953674316
383.96344893028072,-5
384.97880137105676,-5.5
385.99395855867624,-1
387.0089205312197,-8.3000001907348633
388.02368732675495,-5.6999998092651367
389.03825898334981,-4.9000000953674316
390.05263553905752,-3.5999999046325684
391.06681703192226,-18.399999618530273
392.08080349998454,-11.800000190734863
393.09459498126671,-9.6000003814697266
394.10819151379292,-11.300000190734863
395.12159313558004,-4.0999999046325684
396.13479988461768,-2.0999999046325684
397.14781179890815,0.20000000298023224
398.16062891643014,-12.600000381469727
399.17325127516779,-4.0999999046325684
400.18567891308157,-15.899999618530273
401.19791186813563,-2.2000000476837158
402.20995017827954,-8
403.22179388145014,-13.899999618530273
404.23344301558427,1.2000000476837158
405.24489761860423,-9
406.256157728425,-6.6999998092651367
407.26722338295986,-11.100000381469727
408.27809462009827,-6.4000000953674316
409.28877147773528,-13.399999618530273
410.29925399374588,-11.399999618530273
411.30954220601052,-5.0999999046325684
412.31963615238783,-10.600000381469727
413.3295358707328,-2.7999999523162842
414.33924139889314,-8.1000003814697266
415.348752774702,-7.8000001907348633
416.35807003599439,-8.1000003814697266
417.36719322058889,-3
418.3761223662932,-8.6000003814697266
419.38485751091685,2.9000000953674316
420.39339869224932,-9.1999998092651367
421.4017459480765,-7
422.4098993161806,-8.1000003814697266
423.41785883432567,-8.8000001907348633
424.42562454027211,-8.8000001907348633
425.43319647177304,1.7999999523162842
426.44057466656886,-7.1999998092651367
427.44775916239269,-4.1999998092651367
428.45474999697581,-10.800000190734863
429.46154720802588,-15
430.46815083326146,-9.8000001907348633
431.474560910372,-10.100000381469727
432.48077747705611,4.5999999046325684
433.48680057099773,-5.6999998092651367
434.4926302298627,-12.899999618530273
435.49826649132046,-10.5
436.50370939302593,-3.4000000953674316
437.50895897263217,-5.3000001907348633
438.5140152677759,-1.2000000476837158
439.51887831608292,-14.199999809265137
440.52354815518265,-1.2000000476837158
441.52802482268817,-0.30000001192092896
442.532308356198,-7.5999999046325684
443.53639879331604,-4.5
444.54029617162814,-15.5
445.54400052871461,-14.199999809265137
446.54751190214483,-6.5
447.55083032947732,-11.100000381469727
448.553955848276,-5.9000000953674316
449.55688849607577,-12.800000190734863
450.55962831042052,-14.699999809265137
451.56217532883238,-5.9000000953674316
452.56452958883892,-13.300000190734863
453.56669112794589,-4.5
454.56865998365174,-4.5999999046325684
455.57043619345859,-13.5
456.57201979484853,0.699999988079071
457.57341082529638,-7.3000001907348633
458.57460932227514,-6.6999998092651367
459.57561532323962,-1.2000000476837158
460.57642886564281,-5.3000001907348633
461.57704998692861,-6.4000000953674316
462.57747872453183,-7.1999998092651367
463.57771511587816,-5.9000000953674316
464.57775919838059,-7.9000000953674316
465.5776110094539,-16.899999618530273
466.57727058649289,2.4000000953674316
467.57673796689414,-9.5
468.5760131880379,-14.100000381469727
469.57509628729895,-11.600000381469727
470.57398730204477,-0.10000000149011612
471.57268626963196,-15.899999618530273
472.57119322740982,-4.5999999046325684
473.56950821272039,-15
474.56763126289479,-6.6999998092651367
475.56556241525323,1.6000000238418579
476.56330170711954,-14.199999809265137
477.5608491757921,5.0999999046325684
478.55820485857475,-6.5
479.55536879275314,-8.3999996185302734
480.55234101561109,-2.4000000953674316
481.54912156442151,15.199999809265137
482.54571047644822,17.399999618530273
483.54210778894412,19.799999237060547
484.5383135391603,23
485.53432776433874,1.7000000476837158
486.53015050170507,1.2999999523162842
487.52578178848125,-4.5999999046325684
488.521221661882,8.1000003814697266
489.51647015911294,4.4000000953674316
490.511527317376,-22.399999618530273
491.50639317384957,-12.699999809265137
492.50106776571556,-17
493.49555113015049,-21.100000381469727
494.48984330431631,-0.699999988079071
495.48394432536406,-17.299999237060547
496.477854230443,6.1999998092651367
497.47157305668588,-13.199999809265137
498.46510084122747,-7.1999998092651367
499.45843762119148,-11.899999618530273
500.45158343368166,-2.7000000476837158
501.44453831580358,-4.4000000953674316
502.43730230465735,-7.4000000953674316
503.4298754373267,-4.9000000953674316
504.42225775089173,-14.300000190734863
505.41444928242527,-4.5999999046325684
506.40645006898194,-19
507.39826014762366,-15.399999618530273
508.38987955538869,-5.1999998092651367
509.38130832932075,-12.199999809265137
510.3725465064399,-2.4000000953674316
511.36359412377169,-20.5
512.35445121832345,-5.8000001907348633
513.345117827108,-6.5999999046325684
514.33559398710713,-8
515.32587973531554,-6.4000000953674316
516.31597510870961,-8.8000001907348633
517.305880144253,-3
518.29559487891856,-12.199999809265137
519.2851193496499,-13.699999809265137
520.27445359339254,-19.799999237060547
521.2635976470865,-7.1999998092651367
522.25255154765728,-6.5999999046325684
523.24131533202308,-11
524.22988903709665,-9.6999998092651367
525.21827269978348,-7.1999998092651367
526.20646635697267,-14
527.19447004554968,-4.5999999046325684
528.18228380239634,-12.600000381469727
529.16990766437993,-13.399999618530273
530.15734166836046,-13.899999618530273
531.14458585119428,-12.199999809265137
532.13164024971957,-19.600000381469727
533.11850490077813,-15.199999809265137
534.1051798411936,8
535.09166510778778,-8.3999996185302734
536.0779607373679,-11
537.06406676674123,-14.199999809265137
538.04998323269865,-12
539.03571017202739,-2.0999999046325684
540.02124762150379,-8.8999996185302734
541.00659561790053,-13.699999809265137
541.99175419797393,-5.3000001907348633
542.97672339848032,-15.100000381469727
543.96150325615963,9.5
544.94609380775364,-5
545.93049508998593,-11.899999618530273
546.91470713957824,-11.300000190734863
547.89872999324143,-12.800000190734863
548.88256368767543,-10.600000381469727
549.86620825957834,-10.100000381469727
550.84966374563555,-8.3000001907348633
551.83293018252334,-20.200000762939453
552.81600760691072,-2.7999999523162842
553.79889605546123,-4.0999999046325684
554.78159556482933,-8.8999996185302734
555.76410617165857,-11.100000381469727
556.74642791258339,-18.5
557.72856082423277,-15.5
558.71050494323026,-1.2000000476837158
559.692260306183,3.0999999046325684
560.67382694969274,-17.799999237060547
561.65520491036477,-11.899999618530273
562.63639422477536,-10
563.617394929508,1.6000000238418579
564.59820706113169,8.6999998092651367
565.5788306562099,25
566.55926575129524,39
567.53951238293848,39
568.51957058766675,45.5
569.49944040201626,6.5
570.47912186250869,7.8000001907348633
571.45861500565115,-5.5999999046325684
572.43791986795441,-4.1999998092651367
573.417036485911,-8
574.3959648960099,-11.699999809265137
575.37470513472908,-0.89999997615814209
576.35325723854476,-6.5999999046325684
577.3316212439131,-8.1999998092651367
578.309797187294,-10.300000190734863
579.28778510513439,-6.5
580.26558503387241,-10.100000381469727
581.24319700993874,-10.199999809265137
582.22062106975318,-7.1999998092651367
583.1978572497319,-2.4000000953674316
584.17490558627833,-12.399999618530273
585.15176611579591,4.1999998092651367
586.12843887466624,-10.5
587.1049238992764,-14.899999618530273
588.08122122599343,-6.4000000953674316
589.05733089119167,-10.399999618530273
590.03325293122,-6.5
591.00898738242722,-14.5
591.98453428115681,-6
592.95989366373578,-2.4000000953674316
593.93506556649481,-15.100000381469727
594.91005002574457,-9.6999998092651367
595.88484707779207,-7.6999998092651367
596.85945675894072,-22.899999618530273
597.83387910547935,-15.899999618530273
598.808114153695,-6
599.78216193985281,-2.7999999523162842
600.7560225002253,-5.8000001907348633
601.729695871074,-6.4000000953674316
602.70318208864228,-12.699999809265137
603.67648118917714,-2.5
604.64959320891285,-6.6999998092651367
605.62251818407458,-6.5999999046325684
606.59525615087659,-4.8000001907348633
607.56780714553315,-13.600000381469727
608.54017120424214,-10.899999618530273
609.51234836320145,-16.700000762939453
610.48433865859079,-9.8000001907348633
611.45614212658984,-1.5
612.42775880336558,-4.5
613.39918872508315,6.4000000953674316
614.37043192788951,7.1999998092651367
615.34148844793526,19.700000762939453
616.31235832134917,19.700000762939453
617.28304158426727,16.299999237060547
618.253538272802,0.800000011920929
619.2238484230711,4
620.19397207117981,-9
621.16390925321321,8.5
622.13366000527276,-10.699999809265137
623.103224363429,-13.199999809265137
624.07260236375441,-9
625.04179404231763,-6.5999999046325684
626.01079943516561,-11.399999618530273
626.97961857835253,0.5
627.94825150791621,-10.199999809265137
628.91669825988356,-3.7999999523162842
629.8849588702833,-10.699999809265137
630.85303337512414,-18.399999618530273
631.8209218104148,-9.6000003814697266
632.7886242121549,0.40000000596046448
633.75614061633678,-6.5
634.72347105893823,-11.399999618530273
635.69061557593523,-4.3000001907348633
636.65757420329646,-5.6999998092651367
637.6243469769779,-2.5
638.59093393293,-8.6999998092651367
639.55733510709615,-4.5999999046325684
640.5235505354085,-7.3000001907348633
641.48958025379216,-13.199999809265137
642.45542429816669,-6.1999998092651367
643.4210827044426,-26.600000381469727
644.38655550851945,-5.6999998092651367
645.351842746295,-10.300000190734863
646.31694445364883,-1.8999999761581421
647.28186066646231,1.7000000476837158
648.24659142060591,-2.2000000476837158
649.21113675193737,-11.899999618530273
650.17549669631444,-3.9000000953674316
651.13967128958211,-2.7000000476837158
652.10366056757266,-4.8000001907348633
653.067464566122,-22.100000381469727
654.03108332104784,-2.9000000953674316
654.99451686816428,-3.2000000476837158
655.95776524327266,-5.9000000953674316
656.920828482178,1.3999999761581421
657.88370662066518,-8.3000001907348633
658.84639969451382,-7.5
659.80890773950159,0.20000000298023224
660.77123079139164,-6.0999999046325684
661.733368885938,-9.6000003814697266
662.69532205889118,-19.600000381469727
663.65709034599786,-7.0999999046325684
664.61867378298484,-3
665.58007240558072,-1.5
666.54128624949954,-18.200000762939453
667.50231535045532,2
668.46315974414392,-7.0999999046325684
669.42381946626119,-8.1000003814697266
670.38429455249025,-0.699999988079071
671.34458503851238,-10.199999809265137
672.30469095999615,-8.1999998092651367
673.2646123525974,-21
674.224349251972,-3
675.18390169377017,3.9000000953674316
676.14326971362243,-3.4000000953674316
677.10245334716274,-12.600000381469727
678.0614526300069,-9.6999998092651367
679.02026759777618,-0.89999997615814209
679.97889828607,-5.1999998092651367
680.93734473048789,-10.199999809265137
681.89560696662011,-4.3000001907348633
682.85368503004611,0.20000000298023224
683.81157895634169,-5
684.76928878106992,-6.5999999046325684
