-777.87311982425126,3.9000000953674316
-776.63374739947358,-0.60000002384185791
-775.39461482227671,-5
-774.15572204389719,4.5999999046325684
-772.91706901559337,-5.0999999046325684
-771.67865568863454,7
-770.44048201429,2.7999999523162842
-769.20254794384346,0.40000000596046448
-767.96485342860433,2.2000000476837158
-766.7273984198855,12.5
-765.49018286900719,1.5
-764.25320672730777,1.1000000238418579
-763.01646994613657,3.7999999523162842
-761.77997247685744,5.0999999046325684
-760.5437142708488,-8.3000001907348633
-759.307695279489,12.300000190734863
-758.07191545417118,-4.9000000953674316
-756.83637474631723,5.6999998092651367
-755.601073107342,15.600000381469727
-754.36601048868215,3.5999999046325684
-753.13118684178153,1
-751.89660211810587,4.9000000953674316
-750.66225626912092,2.2999999523162842
-749.42814924630693,5.5999999046325684
-748.19428100116238,5.9000000953674316
-746.960651485193,2.7000000476837158
-745.72726064991912,8.3999996185302734
-744.49410844686827,3.0999999046325684
-743.26119482758622,3.2000000476837158
-742.02851974362966,6
-740.79608314656616,6.8000001907348633
-739.5638849879706,10.600000381469727
-738.331925219436,-1.2000000476837158
-737.10020379257367,5.4000000953674316
-735.86872065898388,9
-734.63747577031063,6.5999999046325684
-733.406469078187,0.10000000149011612
-732.17570053426061,-1.7999999523162842
-730.94517009020092,-4.3000001907348633
-729.71487769768464,8.1999998092651367
-728.48482330838851,10.300000190734863
-727.25500687402564,-2.5999999046325684
-726.02542834630549,-5.9000000953674316
-724.79608767694481,0.800000011920929
-723.56698481768581,1.1000000238418579
-722.33811972027434,4.5
-721.10949233647079,5.0999999046325684
-719.88110261805014,8.1000003814697266
-718.652950516791,-6
-717.42503598449366,6.6999998092651367
-716.19735897296232,13.399999618530273
-714.96991943401918,-2
-713.74271731949739,3.2000000476837158
-712.515752581241,0.5
-711.28902517110146,2.7999999523162842
-710.06253504095184,-4.5999999046325684
-708.83628214267264,4.5999999046325684
-707.610266428148,-1
-706.384487849291,8.6999998092651367
-705.15894635801124,0.40000000596046448
-703.93364190623652,4.1999998092651367
-702.70857444590911,4.8000001907348633
-701.48374392898586,-7
-700.25915030741635,5.5
-699.03479353318289,0.30000001192092896
-697.81067355827872,-2.5
-696.58679033470071,10.100000381469727
-695.36314381444936,3.4000000953674316
-694.1397339495652,-5.6999998092651367
-692.91656069207056,6.1999998092651367
-691.69362399401689,1.5
-690.47092380745926,-3.2000000476837158
-689.24846008447821,-3
-688.02623277714338,-3.5999999046325684
-686.80424183756077,-2
-685.58248721782911,-1.3999999761581421
-684.360968870069,-2.0999999046325684
-683.13968674641546,-4.6999998092651367
-681.91864079900733,18.100000381469727
-680.69783097999425,3.2000000476837158
-679.4772572415477,-14.699999809265137
-678.25691953584283,5
-677.0368178150693,2.2000000476837158
-675.81695203143136,4
-674.59732213714051,14.199999809265137
-673.37792808442282,-7.8000001907348633
-672.15876982551163,7.0999999046325684
-670.9398473126621,5.6999998092651367
-669.72116049812939,-2.2000000476837158
-668.50270933419051,0.800000011920929
-667.28449377312245,6.8000001907348633
-666.0665137672313,-6.0999999046325684
-664.84876926881952,1.5
-663.63126023020413,2.2999999523162842
-662.413986603724,-1.7000000476837158
-661.19694834172151,12.699999809265137
-659.9801453965465,1.2000000476837158
-658.76357772057054,-4.1999998092651367
-657.54724526617247,1.2999999523162842
-656.33114798573843,-2.5
-655.11528583168,2.4000000953674316
-653.89965875640155,3.0999999046325684
-652.68426671233283,10.800000190734863
-651.46910965191455,-2.5999999046325684
-650.25418752759469,1.7999999523162842
-649.03950029183216,0.800000011920929
-647.825047897104,-4
-646.61083029589463,0.10000000149011612
-645.39684744069928,-0.10000000149011612
-644.18309928402778,2
-642.96958577839359,-0.20000000298023224
-641.75630687633929,-0.5
-640.54326253040745,6.9000000953674316
-639.33045269314425,-1.1000000238418579
-638.117877317125,-4.4000000953674316
-636.90553635492142,0.800000011920929
-635.69342975913059,0.60000002384185791
-634.481557482357,-5.5999999046325684
-633.26991947720853,-3.5999999046325684
-632.05851569631523,9.3000001907348633
-630.84734609231418,6.4000000953674316
-629.63641061784983,-0.60000002384185791
-628.4257092255848,-5
-627.21524186819988,11.800000190734863
-626.00500849836862,-5.9000000953674316
-624.79500906879366,-0.10000000149011612
-623.58524353217763,-11.899999618530273
-622.37571184124863,-5.4000000953674316
-621.1664139487275,9.3000001907348633
-619.95734980736415,3.7999999523162842
-618.74851936991581,-10.899999618530273
-617.539922589136,-0.800000011920929
-616.33155941781479,4.1999998092651367
-615.12342980873473,4.9000000953674316
-613.91553371470036,3.2999999523162842
-612.70787108852346,0.10000000149011612
-611.50044188302672,-3.2000000476837158
-610.29324605104739,-1.6000000238418579
-609.08628354543725,2.2000000476837158
-607.87955431905175,-1.2000000476837158
-606.67305832475722,9.3999996185302734
-605.46679551544912,-1
-604.26076584400835,11.800000190734863
-603.05496926335218,2.7000000476837158
-601.849405726387,-9.5
-600.64407518604821,6.5
-599.438977595275,-0.20000000298023224
-598.234112907021,-3.7999999523162842
-597.02948107425073,0.5
-595.82508204993974,-3.5
-594.62091578707441,-8.5
-593.41698223864842,16.200000762939453
-592.21328135768454,-10.100000381469727
-591.009813097191,-0.30000001192092896
-589.80657741020877,-3.0999999046325684
-588.60357424978247,4
-587.4008035689676,-0.10000000149011612
-586.19826532083425,-1.2000000476837158
-584.99595945845977,-13
-583.793885934936,0.89999997615814209
-582.5920447033659,-2.7999999523162842
-581.39043571686307,-6.9000000953674316
-580.18905892855764,5.1999998092651367
-578.98791429158518,-1.2000000476837158
-577.78700175909034,-7.5999999046325684
-576.58632128423778,5.9000000953674316
-575.38587282020308,-5
-574.1856563201618,5
-572.98567173731681,-3.0999999046325684
-571.78591902487278,9.8000001907348633
-570.58639813603986,5.5
-569.38710902406274,-2.2999999523162842
-568.18805164217156,-4.3000001907348633
-566.98922594362557,-13.199999809265137
-565.790631881684,-7.1999998092651367
-564.59226940962253,-5.1999998092651367
-563.39413848073127,1.1000000238418579
-562.19623904831133,-12.600000381469727
-560.99857106566742,0.89999997615814209
-559.80113448612792,5.5
-558.60392926301938,-5
-557.40695534968654,-5.4000000953674316
-556.21021269949415,1.1000000238418579
-555.0137012658015,-3.5999999046325684
-553.81742100199153,-5.0999999046325684
-552.62137186145628,-2.2000000476837158
-551.4255537975896,-6.5999999046325684
-550.22996676381626,-2.9000000953674316
-549.03461071355377,-14.199999809265137
-547.8394856002451,7.8000001907348633
-546.64459137733138,-0.60000002384185791
-545.449927998272,-8.6000003814697266
-544.25549541654073,4.8000001907348633
-543.06129358562066,-0.800000011920929
-541.86732245900566,-11.699999809265137
-540.67358199019873,-6.4000000953674316
-539.48007213271376,-3.4000000953674316
-538.28679284007922,-2.9000000953674316
-537.09374406584539,4.9000000953674316
-535.900925763548,-3.2000000476837158
-534.70833788675736,-0.40000000596046448
-533.51598038904558,6.5
-532.32385322399932,4.0999999046325684
-531.13195634520889,-4.1999998092651367
-529.94028970629006,-5.4000000953674316
-528.74885326085314,-3
-527.55764696253573,-8.1000003814697266
-526.36667076497724,-1.1000000238418579
-525.17592462183165,5.9000000953674316
-523.985408486762,-6.0999999046325684
-522.79512231344415,3.7000000476837158
-521.60506605556839,-3.9000000953674316
-520.41523966682871,-14.800000190734863
-519.22564310093912,8.6000003814697266
-518.0362763116209,-11.699999809265137
-516.84713925260257,-5.9000000953674316
-515.65823187763453,-11.800000190734863
-514.46955414046715,-2.2999999523162842
-513.28110599486718,-12.399999618530273
-512.09288739461954,-8.8000001907348633
-510.90489829350736,-7.5999999046325684
-509.71713864533194,-10.600000381469727
-508.52960840390369,-8.8000001907348633
-507.3423075230512,-11.300000190734863
-506.15523595660488,-4.1999998092651367
-504.96839365841697,-18.700000762939453
-503.78178058233607,-6.4000000953674316
-502.59539668223624,-4.5
-501.4092419119952,0.60000002384185791
-500.223316225507,-8.1999998092651367
-499.0376195766712,-1.8999999761581421
-497.85215191940188,-2.2000000476837158
-496.666913207624,0.40000000596046448
-495.48190339527719,0.30000001192092896
-494.29712243630638,-6.4000000953674316
-493.11257028467116,4.4000000953674316
-491.928246894342,-1
-490.7441522193003,-1.7000000476837158
-489.56028621353471,6.8000001907348633
-488.37664883105754,6.1999998092651367
-487.19324002587746,-6.4000000953674316
-486.01005975202315,10.199999809265137
-484.8271079635324,-10.800000190734863
-483.6443846144557,2
-482.46188965885085,0.30000001192092896
-481.27962305079018,4.5
-480.09758474435512,-13
-478.91577469364165,-11.899999618530273
-477.73419285275304,-0.60000002384185791
-476.55283917580709,-11.600000381469727
-475.37171361693436,-3.5999999046325684
-474.19081613026719,-6.6999998092651367
-473.010146669958,-4.5999999046325684
-471.82970519017181,-4.5999999046325684
-470.64949164507379,-6.0999999046325684
-469.46950598885633,-5.9000000953674316
-468.28974817570452,-12
-467.1102181598344,-6.0999999046325684
-465.93091589545475,-13.100000381469727
-464.75184133679977,-2.7999999523162842
-463.57299443810552,-8.3000001907348633
-462.39437515362624,-11.100000381469727
-461.2159834376198,-4.9000000953674316
-460.03781924436043,-4.4000000953674316
-458.85988252813513,-7.9000000953674316
-457.68217324323632,-1
-456.50469134396917,-0.89999997615814209
-455.32743678465886,-16.5
-454.15040951962692,-3.7000000476837158
-452.97360950321672,-5
-451.79703668977709,-6.6999998092651367
-450.62069103367321,0.5
-449.4445724892721,1
-448.26868101096989,-18.399999618530273
-447.09301655315357,-4
-445.9175790702302,1.3999999761581421
-444.74236851661954,-8.8999996185302734
-443.56738484675407,-6.4000000953674316
-442.39262801506811,-6
-441.21809797601236,-6.3000001907348633
-440.0437946840575,-5.0999999046325684
-438.86971809366878,-8
-437.69586815933872,-4.1999998092651367
-436.52224483555256,-4.5999999046325684
-435.34884807682647,-3.7999999523162842
-434.17567783767481,-4.5999999046325684
-433.00273407262466,-2.4000000953674316
-431.83001673621948,-12.199999809265137
-430.65752578300453,-4.5
-429.4852611675542,-7.5999999046325684
-428.31322284443013,3.2999999523162842
-427.14141076821943,-2.5999999046325684
-425.96982489351649,0.89999997615814209
-424.79846517493388,-6.0999999046325684
-423.62733156708055,7
-422.45642402459453,-7.1999998092651367
-421.28574250211022,-11
-420.1152869542766,-2.5999999046325684
-418.94505733575534,-18.899999618530273
-417.77505360122632,-0.60000002384185791
-416.60527570536397,-1.7000000476837158
-415.43572360287,-7.1999998092651367
-414.26639724844608,-8.8000001907348633
-413.09729659681216,-10.199999809265137
-411.92842160268992,-6.1999998092651367
-410.7597722208302,-5.6999998092651367
-409.59134840596926,-3.7000000476837158
-408.42315011287792,-10.5
-407.2551772963252,-3.2999999523162842
-406.087429911091,-0.699999988079071
-404.9199079119735,-6.5
-403.75261125377619,7.1999998092651367
-402.58553989131542,-9.6000003814697266
-401.41869377941293,-9.1000003814697266
-400.25207287291232,3.7000000476837158
-399.08567712666627,-1
-397.919506495522,-5.5999999046325684
-396.75356093436312,-6.3000001907348633
-395.58784039806596,-0.20000000298023224
-394.42234484151959,-19.899999618530273
-393.25707421963307,-8.3999996185302734
-392.09202848732275,-7.4000000953674316
-390.92720759950862,-0.20000000298023224
-389.76261151112521,2.0999999046325684
-388.59824017713072,-13.300000190734863
-387.43409355247422,-15.399999618530273
-386.27017159212846,-11.899999618530273
-385.10647425107527,-3.2000000476837158
-383.94300148430193,-3.0999999046325684
-382.77975324681393,-11
-381.616729493624,-10.199999809265137
-380.453930179754,-5.3000001907348633
-379.29135526024038,-9.6999998092651367
-378.129004690134,-6.0999999046325684
-376.96687842448227,-10
-375.80497641835791,-15.100000381469727
-374.64329862683917,-9.5
-373.4818450050152,-5
-372.32061550798426,-11.899999618530273
-371.15961009086277,-7.5999999046325684
-369.99882870877082,-8.8000001907348633
-368.83827131683756,-8.3000001907348633
-367.677937870214,-4
-366.51782832404751,-8.8999996185302734
-365.3579426335109,-3.7000000476837158
-364.19828075377518,-9.3999996185302734
-363.03884264003136,-8.8999996185302734
-361.87962824747046,-1.2000000476837158
-360.7206375313126,-14.199999809265137
-359.56187044677063,-1.5
-358.403326949081,-8.1999998092651367
-357.24500699348027,-0.800000011920929
-356.08691053522307,-5.0999999046325684
-354.92903752956954,-8.1999998092651367
-353.771387931798,-7.6999998092651367
-352.61396169719228,-4.3000001907348633
-351.45675878105067,-11.699999809265137
-350.29977913867333,-10
-349.14302272538407,-1.6000000238418579
-347.98648949651215,-5.9000000953674316
-346.83017940739046,-1
-345.67409241337191,5.5999999046325684
-344.51822846982031,-1.1000000238418579
-343.36258753210313,-2.0999999046325684
-342.20716955560965,2.5999999046325684
-341.05197449572188,2.5999999046325684
-339.89700230785638,3
-338.74225294741518,-4.4000000953674316
-337.58772636983667,4
-336.43342253054652,-11.899999618530273
-335.27934138499768,-6.9000000953674316
-334.12548288865037,1.7000000476837158
-332.97184699696481,-20.700000762939453
-331.81843366542853,-8.1999998092651367
-330.66524284953266,-10.600000381469727
-329.51227450476654,-3
-328.35952858665769,-12.800000190734863
-327.20700505071909,-12
-326.05470385248555,-10.699999809265137
-324.90262494750459,-4.6999998092651367
-323.75076829132558,6.4000000953674316
-322.59913383951789,-5.8000001907348633
-321.44772154765633,-0.40000000596046448
-320.29653137132846,-10.600000381469727
-319.14556326613092,-3
-317.99481718767311,-4.3000001907348633
-316.84429309157531,-5
-315.69399093346874,-9.3999996185302734
-314.54391066899007,-5.0999999046325684
-313.39405225379596,-8.8999996185302734
-312.24441564354129,-3.4000000953674316
-311.09500079390455,-14.899999618530273
-309.94580766056788,-7.3000001907348633
-308.79683619922253,-5.9000000953674316
-307.64808636558337,7.1999998092651367
-306.49955811535619,-4.6999998092651367
-305.35125140426862,-18.899999618530273
-304.203166188061,-3.0999999046325684
-303.05530242247733,0.30000001192092896
-301.90766006327794,-10.399999618530273
-300.76023906623413,5.6999998092651367
-299.61303938712081,-1.5
-298.46606098173288,-2.7000000476837158
-297.31930380586527,3.7999999523162842
-296.17276781533837,-7.1999998092651367
-295.02645296596893,-6.3000001907348633
-293.88035921359551,0.800000011920929
-292.73448651404942,5.8000001907348633
-291.58883482319834,-5.0999999046325684
-290.44340409690449,3.5
-289.29819429103554,-3.7000000476837158
-288.15320536148647,10.600000381469727
-287.0084372641486,-10
-285.86388995493689,3.2000000476837158
-284.7195633897627,-5.4000000953674316
-283.57545752455371,0.10000000149011612
-282.431572315254,9.3999996185302734
-281.28790771781496,10.699999809265137
-280.1444636881879,-0.10000000149011612
-279.00124018235692,7.0999999046325684
-277.8582371562934,-3.5999999046325684
-276.71545456599597,3.2999999523162842
-275.57289236746692,7.8000001907348633
-274.43055051671945,-4
-273.28842896977221,10
-272.14652768267115,5.6999998092651367
-271.00484661145128,1.2000000476837158
-269.86338571217493,6.5
-268.72214494090622,13.699999809265137
-267.581124253722,-8.3999996185302734
-266.44032360671372,4.8000001907348633
-265.29974295597458,2.7000000476837158
-264.159382257616,3.7999999523162842
-263.01924146776037,15.399999618530273
-261.87932054252815,5.9000000953674316
-260.73961943807444,12.199999809265137
-259.60013811053796,17.600000381469727
-258.46087651608468,5.1999998092651367
-257.32183461088971,13.399999618530273
-256.18301235113358,17.100000381469727
-255.04440969300595,25.299999237060547
-253.90602659271462,25.700000762939453
-252.76786300647473,17.399999618530273
-251.62991889051045,16.899999618530273
-250.49219420105146,19.600000381469727
-249.35468889435288,22.200000762939453
-248.217402926668,27.799999237060547
-247.08033625425924,21.899999618530273
-245.94348883341445,25.200000762939453
-244.80686062040877,20.100000381469727
-243.67045157154826,19.899999618530273
-242.53426164314442,43.200000762939453
-241.39829079150877,8.6999998092651367
-240.26253897297829,24.799999237060547
-239.12700614388814,32.400001525878906
-237.99169226059348,30.600000381469727
-236.85659727945676,28.700000762939453
-235.72172115684771,46.799999237060547
-234.58706384914331,33.799999237060547
-233.4526253127442,29.5
-232.31840550405468,39.599998474121094
-231.18440437947902,34
-230.05062189545242,25.399999618530273
-228.91705800840282,42.900001525878906
-227.78371267477996,43.299999237060547
-226.65058585103725,46.299999237060547
-225.51767749363898,38.200000762939453
-224.38498755906403,40.900001525878906
-223.2525160037967,58.5
-222.1202627843395,68.199996948242188
-220.98822785719858,58.900001525878906
-219.85641117888918,58.099998474121094
-218.7248127059429,77.0999984741211
-217.59343239489681,67.199996948242188
-216.46227020230072,65.5999984741211
-215.3313260847226,69.4000015258789
-214.20059999872137,67
-213.07009190087956,67.300003051757813
-211.9398017477979,88.800003051757813
-210.80972949606621,73.199996948242188
-209.67987510230523,66.199996948242188
-208.5502385231357,60.099998474121094
-207.42081971518564,78.300003051757813
-206.29161863510308,67
-205.16263523954149,54.200000762939453
-204.03386948516163,62.299999237060547
-202.90532132864428,60
-201.77699072666474,64.5
-200.64887763592742,60.799999237060547
-199.52098201313311,55.700000762939453
-198.39330381500076,61
-197.26584299825117,55.200000762939453
-196.13859951962695,52
-195.01157333587253,51.799999237060547
-193.88476440374143,51
-192.75817268001083,50.200000762939453
-191.63179812144881,53.5
-190.50564068485255,61.200000762939453
-189.3797003270156,50.799999237060547
-188.25397700474423,49.900001525878906
-187.12847067486291,70.199996948242188
-186.00318129420339,57.200000762939453
-184.87810881960104,69.800003051757813
-183.75325320790944,71.4000015258789
-182.62861441598398,87
-181.50419240070187,84.5999984741211
-180.37998711894033,86.800003051757813
-179.25599852759296,95.4000015258789
-178.13222658356062,107.09999847412109
-177.00867124376236,117.69999694824219
-175.88533246510815,146.10000610351563
-174.76221020454068,183.39999389648438
-173.63930441900084,197.5
-172.51661506544224,218.89999389648438
-171.39414210082759,237.89999389648438
-170.27188548212871,279.70001220703125
-169.14984516633558,284.89999389648438
-168.02802111043638,328.29998779296875
-166.90641327144112,309.89999389648438
-165.78502160636344,314.10000610351563
-164.66384607223154,314.60000610351563
-163.54288662607541,320.89999389648438
-162.4221432249451,323.20001220703125
-161.30161582589426,284.10000610351563
-160.18130438598928,296.10000610351563
-159.06120886230929,276.20001220703125
-157.94132921194432,274.5
-156.82166539198624,262.60000610351563
-155.70221735953965,259.10000610351563
-154.58298507173095,266.60000610351563
-153.46396848568111,256
-152.34516755853474,276
-151.22658224743282,269
-150.10821250953813,278.39999389648438
-148.99005830202077,287
-147.87211958205626,274.29998779296875
-146.75439630683832,304.10000610351563
-145.63688843355885,319
-144.51959591943705,324
-143.40251872168847,329.10000610351563
-142.28565679753956,347
-141.16901010423499,364.20001220703125
-140.05257859902849,385.29998779296875
-138.93636223917383,384.60000610351563
-137.82036098194294,411
-136.70457478462595,429.10000610351563
-135.58900360449843,435.10000610351563
-134.47364739887416,486.79998779296875
-133.35850612506329,485.29998779296875
-132.24357974038321,505
-131.12886820217136,533.70001220703125
-130.01437146776334,560.4000244140625
-128.90008949451476,572
-127.78602223979033,591.70001220703125
-126.67216966095839,628.70001220703125
-125.55853171540366,639.79998779296875
-124.44510836051813,668.5999755859375
-123.33189955371017,704.5999755859375
-122.2189052523845,728
-121.10612541397313,761.4000244140625
-119.9935599959008,783.20001220703125
-118.88120895561769,785.79998779296875
-117.76907225057403,837.70001220703125
-116.65714983823818,843.29998779296875
-115.54544167607855,851.9000244140625
-114.43394772158354,877.0999755859375
-113.32266793224335,878.29998779296875
-112.21160226556458,904.5999755859375
-111.10075067906291,898.79998779296875
-109.99011313026131,942
-108.87968957669545,921.70001220703125
-107.76947997590833,995.9000244140625
-106.65948428545926,991.5
-105.54970246290759,1003
-104.44013446582903,1030.800048828125
-103.33078025181567,1059.699951171875
-102.22163977845048,1075.0999755859375
-101.11271300335284,1114
-100.00399988412755,1132.699951171875
-98.8955003784049,1152.199951171875
-97.787214443818812,1219.4000244140625
-96.679142038015925,1257.4000244140625
-95.571283118651991,1342
-94.46363764339003,1430.4000244140625
-93.356205569909434,1463.300048828125
-92.248986855895055,1514.300048828125
-91.141981459042654,1460.800048828125
-90.035189337055272,1519.199951171875
-88.928610447654137,1509.0999755859375
-87.8222447485623,1572.300048828125
-86.716092197515536,1651.800048828125
-85.610152752264185,1762.300048828125
-84.504426370558576,1787.5999755859375
-83.3989130101636,1712.300048828125
-82.29361262886232,1643.199951171875
-81.188525184439641,1607.300048828125
-80.083650634691367,1593.9000244140625
-78.978988937416943,1591.4000244140625
-77.8745400504431,1738.800048828125
-76.7703039315893,1880
-75.666280538693172,2037.699951171875
-74.56246982959965,2093
-73.45887176217002,2197.699951171875
-72.355486294265575,2154.800048828125
-71.2523133837658,2040
-70.149352988557439,1908.800048828125
-69.046605066534539,1803.199951171875
-67.944069575602043,1752.9000244140625
-66.84174647367945,1707.9000244140625
-65.739635718693535,1693.0999755859375
-64.63773726857471,1730.9000244140625
-63.5360510812734,1766.4000244140625
-62.434577114750937,1829.9000244140625
-61.3333153269632,1972.0999755859375
-60.232265675895178,2155.199951171875
-59.131428119522752,2559.89990234375
-58.030802615854554,3073.300048828125
-56.930389122886481,3649.5
-55.830187598636257,4047.39990234375
-54.730198001132521,4177.89990234375
-53.630420288413006,4021.10009765625
-52.530854418515446,3575.800048828125
-51.431500349504859,3183
-50.332358039440805,3080.10009765625
-49.233427446402857,3252.39990234375
-48.134708528470583,3763.199951171875
-47.036201243741743,4693.2001953125
-45.937905550323194,5997.7998046875
-44.839821406334522,7881.10009765625
-43.74194876988804,10106.2998046875
-42.64428759913244,11425.400390625
-41.5468378522055,12127.2001953125
-40.449599487265004,11961
-39.352572462472381,11306
-38.255756736005424,10667.2998046875
-37.159152266047386,9741
-36.062759010790614,8004.10009765625
-34.966576928443828,6225.60009765625
-33.8706059772212,5357
-32.774846115338732,5747.10009765625
-31.679297301039696,8190.2998046875
-30.583959492563736,11499.2998046875
-29.488832648166863,13250.2998046875
-28.393916726110547,13107.400390625
-27.299211684672628,10151.599609375
-26.204717482129126,6827.39990234375
-25.110434076774254,5071.89990234375
-24.016361426916774,4300.60009765625
-22.922499490865448,4044.60009765625
-21.828848226945411,3762
-20.735407593489072,3531.39990234375
-19.642177548834297,3268
-18.549158051340783,3046.60009765625
-17.456349059368222,2996.699951171875
-16.363750531281767,2995.89990234375
-15.271362425470215,3087.300048828125
-14.179184700326005,3059.89990234375
-13.087217314247027,3211.60009765625
-11.995460225642091,3229.60009765625
-10.903913392940012,3369
-9.8125767745696066,3514.800048828125
-8.7214503289651475,3630.60009765625
-7.6305340145827358,3737.39990234375
-6.5398277898821107,3742.60009765625
-5.4493316133357439,3246.699951171875
-4.3590454434179264,2325.89990234375
-3.26896923861932,1235
-2.1791029574433196,341
-1.0894465583987767,77.0999984741211
-3.637978807091713E-12,69.699996948242188
1.0892367592168739,328
2.1782637607157085,1135.5999755859375
3.2670810459494533,2062.39990234375
4.3556886563619628,3144.10009765625
5.4440866333861777,3669.60009765625
6.5322750184368488,3795.39990234375
7.6202538529305457,3696
8.7080231782692863,3597.39990234375
9.7955830358478124,3506.5
10.882933467048133,3460.10009765625
11.970074513241343,3405.300048828125
13.0570062157949,3361.10009765625
14.143728616063527,3281.60009765625
15.230241755389216,3298.5
16.316545675103043,3213
17.402640416532449,3292.89990234375
18.488526020995778,3471
19.574202529791364,3812.89990234375
20.659669984221182,4100.10009765625
21.744928425567196,4457.7998046875
22.82997789510955,4720.2001953125
23.914818434106564,5298.39990234375
24.99945008382565,6848.89990234375
26.083872885503297,9992.900390625
27.168086880381452,13932.900390625
28.252092109691148,15407.7001953125
29.33588861464159,14775.400390625
30.419476436449258,11183.2998046875
31.502855616305169,7497.10009765625
32.586026195402155,6267.7001953125
33.668988214920319,6737.5
34.751741716028846,8442.599609375
35.834286739884192,10613.2998046875
36.916623327637353,12399.7998046875
37.998751520428414,13447.7998046875
39.080671359392,14269.099609375
40.162382885640909,14802.7998046875
41.243886140291579,14560.5
42.325181164447713,13625.400390625
43.406267999200281,11355.400390625
44.4871466856257,8694.7998046875
45.5678172648004,6754.2998046875
46.648279777786229,5470.2998046875
47.72853426563961,4459.5
48.8085807694024,4004.39990234375
49.888419330107354,3941.199951171875
50.968049988779967,4224
52.047472786436629,4775.2001953125
53.126687764075541,5275.7001953125
54.205694962698544,5521
55.284494423289289,5251.10009765625
56.363086186827786,4660.7001953125
57.44147029427404,3869.10009765625
58.519646786589874,3292.10009765625
59.597615704718919,2893.89990234375
60.67537708960117,2656.300048828125
61.752930982163889,2517.199951171875
62.83027742332888,2408.39990234375
63.90741645399612,2333.39990234375
64.984348115074681,2296.10009765625
66.061072447448169,2335.199951171875
67.13758949199655,2396.5
68.213899289597975,2495.5
69.29000188109967,2691.199951171875
70.36589730736705,2895.39990234375
71.441585609234608,3055.300048828125
72.517066827535018,3176.699951171875
73.592341003088222,3115.300048828125
74.667408176715981,2973
75.742268389207311,2750.199951171875
76.816921681369422,2583.199951171875
77.891368093980418,2427.10009765625
78.965607667816585,2341.89990234375
80.039640443639655,2338.300048828125
81.113466462209544,2481.10009765625
82.187085764271615,2610.800048828125
83.260498390560315,2770
84.333704381804637,2759.60009765625
85.40670377871902,2706.39990234375
86.479496622014267,2514.5
87.552082952388446,2408.89990234375
88.624462810528712,2364.60009765625
89.6966362371113,2321.60009765625
90.76860327281247,2359.300048828125
91.840363958286616,2364.89990234375
92.911918334189977,2342.60009765625
93.983266441158776,2224.199951171875
95.054408319829236,2119.699951171875
96.12534401081939,2036.4000244140625
97.19607355474,2003.5
98.2665969922,1927.5999755859375
99.336914363786491,1888.4000244140625
100.40702571009024,1917.5
101.47693107168197,1840.9000244140625
102.54663048912334,1780.199951171875
103.61612400297781,1801.4000244140625
104.68541165378701,1736.4000244140625
105.75449348208713,1734.5999755859375
106.82336952840706,1667.9000244140625
107.89203983326297,1653.9000244140625
108.96050443715831,1634.5999755859375
110.02876338060378,1648.9000244140625
111.09681670407736,1582.800048828125
112.16466444806247,1583.0999755859375
113.23230665302981,1580.5999755859375
114.2997433594428,1533.4000244140625
115.36697460774849,1527.699951171875
116.43400043838665,1489.5999755859375
117.50082089179705,1459.300048828125
118.56743600839945,1444.0999755859375
119.63384582860272,1409.0999755859375
120.70005039281386,1403.800048828125
121.76604974143083,1353.699951171875
122.83184391483519,1295.5999755859375
123.89743295340486,1236.5999755859375
124.96281689750322,1212.4000244140625
126.02799578748636,1178.5999755859375
127.09296966370857,1138.800048828125
128.15773856649867,1096
129.22230253619455,1090.199951171875
130.28666161311048,1027.5999755859375
131.35081583755345,1003
132.414765249825,942.4000244140625
133.47850989022481,933.5999755859375
134.54204979901988,881.20001220703125
135.60538501649535,860.20001220703125
136.66851558290364,826.79998779296875
137.73144153850444,818.5999755859375
138.79416292353926,785.9000244140625
139.85667977824414,743.5
140.91899214284422,733.29998779296875
141.9811000575537,694.29998779296875
143.0430035625759,692.5999755859375
144.10470269811231,687.20001220703125
145.16619750435348,658.5999755859375
146.22748802146998,659.9000244140625
147.28857428963602,611.0999755859375
148.3494563490076,626.70001220703125
149.41013423973891,579.79998779296875
150.47060800196778,584.70001220703125
151.53087767582292,566.9000244140625
152.59094330143125,569.5999755859375
153.65080491890512,569.20001220703125
154.71046256834779,602.4000244140625
155.76991628984433,593.4000244140625
156.82916612349436,616.20001220703125
157.88821210936294,635.20001220703125
158.94705428751695,668.70001220703125
160.00569269801963,687.4000244140625
161.06412738090876,735.20001220703125
162.12235837622939,752.79998779296875
163.18038572400837,782
164.23820946425803,775.0999755859375
165.29582963700341,802.5
166.35324628222952,755.5999755859375
167.41045943993777,759.29998779296875
168.4674691501059,696.5999755859375
169.52427545270439,665.5999755859375
170.58087838770371,610.70001220703125
171.63727799505432,540.20001220703125
172.6934743146976,469.29998779296875
173.74946738657491,434.10000610351563
174.80525725060761,391.89999389648438
175.86084394671525,324.70001220703125
176.91622751480463,317.39999389648438
177.97140799477529,296.39999389648438
179.02638542651403,266.89999389648438
180.08115984989854,236.19999694824219
181.13573130480836,234.30000305175781
182.1900998310939,213
183.24426546861469,199.89999389648438
184.29822825721203,197.89999389648438
185.35198823671635,191.69999694824219
186.40554544695078,173.80000305175781
187.45889992773846,184.89999389648438
188.51205171887523,163.10000610351563
189.5650008601624,169.60000610351563
190.61774739138855,166.60000610351563
191.67029135232588,169.60000610351563
192.72263278274659,156.30000305175781
193.77477172241379,147.89999389648438
194.82670821106694,160.89999389648438
195.87844228846188,172.39999389648438
196.92997399431806,181.80000305175781
197.98130336836039,158.60000610351563
199.03243045030285,182.60000610351563
200.083355279854,173.80000305175781
201.13407789669873,178.19999694824219
202.18459834053465,184
203.23491665102665,195.10000610351563
204.28503286785053,196.89999389648438
205.33494703066026,197.69999694824219
206.38465917910617,206
207.43416935282403,209.39999389648438
208.48347759144417,212
209.53258393459691,213.30000305175781
210.58148842188348,218.19999694824219
211.63019109291054,220.10000610351563
212.67869198727021,218.5
213.726991144551,229.5
214.775088604325,210.19999694824219
215.82298440615341,215.19999694824219
216.8706785896029,221.10000610351563
217.91817119421466,188.39999389648438
218.96546225952443,212.39999389648438
220.01255182506975,195.10000610351563
221.05943993036635,185.60000610351563
222.10612661491905,164.80000305175781
223.15261191823993,167.5
224.19889587981743,167.10000610351563
225.24497853913635,165.60000610351563
226.29085993566514,157.19999694824219
227.33654010887221,145.69999694824219
228.38201909822055,132.69999694824219
229.42729694314221,123.90000152587891
230.47237368309288,140.30000305175781
231.51724935748462,124.90000152587891
232.56192400574764,130.19999694824219
233.60639766728673,121.80000305175781
234.65067038150482,108.69999694824219
235.69474218779396,116
236.73861312553527,104.69999694824219
237.78228323410804,120.69999694824219
238.82575255286974,104.09999847412109
239.86902112117787,109.80000305175781
240.9120889783826,102.19999694824219
241.95495616381777,112.80000305175781
242.99762271681357,109.90000152587891
244.04008867668745,104
245.08235408274959,113
246.1244189743029,113.19999694824219
247.16628339063755,105.5
248.20794737103279,123.90000152587891
249.24941095476788,130.80000305175781
250.29067418110571,99.9000015258789
251.33173708930008,121.40000152587891
252.37259971859567,101.5
253.41326210823536,93
254.45372429744384,89.9000015258789
255.49398632544035,83.199996948242188
256.53404823143683,91.0999984741211
257.57391005463069,88.699996948242188
258.61357183421751,72.4000015258789
259.65303360938196,60
260.69229541928871,64.699996948242188
261.73135730310787,58.400001525878906
262.77021929999864,73.800003051757813
263.80888144910386,54.400001525878906
264.84734378955909,55.299999237060547
265.88560636049988,63.700000762939453
266.92366920103996,65.5
267.9615323502876,47.400001525878906
268.99919584735289,46.099998474121094
270.03665973132047,54.700000762939453
271.07392404127677,52.299999237060547
272.1109888162955,43.5
273.14785409544129,56.400001525878906
274.18451991776965,56.400001525878906
275.22098632233428,47.599998474121094
276.25725334816525,61.700000762939453
277.29332103429442,59.799999237060547
278.32918941974458,47.799999237060547
279.36485854352395,58.900001525878906
280.40032844463531,51.700000762939453
281.43559916207232,54.900001525878906
282.4706707348214,43.700000762939453
283.50554320185074,34.099998474121094
284.540216602134,47.400001525878906
285.57469097462854,48.799999237060547
286.60896635827521,53.299999237060547
287.6430427920186,33
288.67692031479055,41
289.71059896550651,35.599998474121094
290.74407878308375,32.700000762939453
291.777359806425,52.5
292.81044207441846,19.799999237060547
293.84332562596137,35.299999237060547
294.87601049991827,30.899999618530273
295.90849673516095,22.399999618530273
296.94078437055396,29.200000762939453
297.97287344493816,23.100000381469727
299.00476399715808,27.5
300.03645606604368,10.300000190734863
301.06794969041584,24.600000381469727
302.09924490909361,18.200000762939453
303.13034176088149,34.599998474121094
304.16124028456943,6
305.1919405189492,8.8000001907348633
306.222442502798,21.100000381469727
307.25274627488216,6.9000000953674316
308.2828518739625,17.399999618530273
309.31275933879624,11
310.34246870811512,19.799999237060547
311.37198002066361,14
312.40129331515891,8.3999996185302734
313.43040863031638,26
314.45932600484593,14.300000190734863
315.48804547744476,20.600000381469727
316.51656708679729,32.599998474121094
317.54489087158618,15.300000190734863
318.57301687048675,49
319.60094512215619,42.900001525878906
320.62867566524437,13.800000190734863
321.65620853840483,23.700000762939453
322.68354378026197,9.3999996185302734
323.71068142945296,20.899999618530273
324.73762152458949,7.4000000953674316
325.76436410428141,-0.30000001192092896
326.79090920712588,5.1999998092651367
327.81725687171638,1.5
328.84340713663732,14.100000381469727
329.86936004045674,-21.100000381469727
330.8951156217463,5.6999998092651367
331.92067391905039,-1.3999999761581421
332.9460349709243,0.30000001192092896
333.97119881590334,7.6999998092651367
334.99616549251732,5.9000000953674316
336.02093503928518,-0.60000002384185791
337.04550749471673,9.3999996185302734
338.06988289731453,15.399999618530273
339.09406128557566,23.899999618530273
340.11804269798085,22.700000762939453
341.14182717300719,38.900001525878906
342.16541474912265,25.600000381469727
343.18880546478249,33.299999237060547
344.21199935844015,32.200000762939453
345.23499646853088,37.5
346.25779683349174,22.899999618530273
347.2804004917416,5.5999999046325684
348.30280748169571,17.399999618530273
349.3250178417602,18.5
350.34703161032849,3
351.36884882579034,0.20000000298023224
352.39046952652461,5.6999998092651367
353.41189375090107,9.8000001907348633
354.43312153727675,-6.8000001907348633
355.45415292401049,-0.60000002384185791
356.47498794944113,-2
357.49562665190388,-6
358.51606906973029,1.5
359.53631524122466,-6.5
360.55636520471126,2.7000000476837158
361.576218998478,4
362.59587666081825,-8.6000003814697266
363.6153382300181,-3.9000000953674316
364.63460374434362,-4.0999999046325684
365.65367324206454,-1.6000000238418579
366.67254676143239,-2.7999999523162842
367.69122434069686,-13.399999618530273
368.70970601810041,-10.300000190734863
369.7279918318618,-13.699999809265137
370.74608182021075,-9.3999996185302734
371.7639760213533,-7.5999999046325684
372.78167447349733,-15.5
373.79917721483071,-4.5
374.81648428354674,-12.899999618530273
375.8335957178133,-8.8000001907348633
376.85051155580732,-9.1000003814697266
377.86723183568211,-7.8000001907348633
378.88375659558915,-18.100000381469727
379.90008587367265,-9.6999998092651367
380.91621970806045,-13.800000190734863
381.932158136884,0.30000001192092896
382.94790119825484,-9.1999998092651367
383.96344893028072,-9.3999996185302734
384.97880137105676,-6.1999998092651367
385.99395855867624,-4.4000000953674316
387.0089205312197,-5.1999998092651367
388.02368732675495,1.3999999761581421
389.03825898334981,-7.9000000953674316
390.05263553905752,-3.9000000953674316
391.06681703192226,-14.800000190734863
392.08080349998454,-17.100000381469727
393.09459498126671,-9.6999998092651367
394.10819151379292,-12.600000381469727
395.12159313558004,-5.9000000953674316
396.13479988461768,-7.5999999046325684
397.14781179890815,1.5
398.16062891643014,-20.5
399.17325127516779,-6.5
400.18567891308157,-9.8000001907348633
401.19791186813563,-7.0999999046325684
402.20995017827954,-6.8000001907348633
403.22179388145014,-16.799999237060547
404.23344301558427,-3.0999999046325684
405.24489761860423,-4.5
406.256157728425,-3.7000000476837158
407.26722338295986,-6.6999998092651367
408.27809462009827,2.2999999523162842
409.28877147773528,-14.699999809265137
410.29925399374588,-14.399999618530273
411.30954220601052,-10.199999809265137
412.31963615238783,-11
413.3295358707328,-3.7999999523162842
414.33924139889314,-4.5
415.348752774702,-12.199999809265137
416.35807003599439,-10.600000381469727
417.36719322058889,-1.2000000476837158
418.3761223662932,-4.8000001907348633
419.38485751091685,1.1000000238418579
420.39339869224932,-6.3000001907348633
421.4017459480765,-4
422.4098993161806,-2.4000000953674316
423.41785883432567,-11.100000381469727
424.42562454027211,0
425.43319647177304,-3.4000000953674316
426.44057466656886,-3.0999999046325684
427.44775916239269,-6
428.45474999697581,-4.3000001907348633
429.46154720802588,-11
430.46815083326146,-0.800000011920929
431.474560910372,-10.300000190734863
432.48077747705611,-5.4000000953674316
433.48680057099773,-6.6999998092651367
434.4926302298627,-11.100000381469727
435.49826649132046,-1.7000000476837158
436.50370939302593,-1.6000000238418579
437.50895897263217,-7.0999999046325684
438.5140152677759,-1.7000000476837158
439.51887831608292,-3.7999999523162842
440.52354815518265,-21.200000762939453
441.52802482268817,-6
442.532308356198,-15.199999809265137
443.53639879331604,-7.5999999046325684
444.54029617162814,-12.699999809265137
445.54400052871461,-15.100000381469727
446.54751190214483,-8.1000003814697266
447.55083032947732,-13.800000190734863
448.553955848276,-11.5
449.55688849607577,-9.3000001907348633
450.55962831042052,-15.899999618530273
451.56217532883238,-17.700000762939453
452.56452958883892,-18.799999237060547
453.56669112794589,-4.5999999046325684
454.56865998365174,-8.3000001907348633
455.57043619345859,-13.600000381469727
456.57201979484853,-10.800000190734863
457.57341082529638,-11.100000381469727
458.57460932227514,-3.5
459.57561532323962,-6.9000000953674316
460.57642886564281,-3.2000000476837158
461.57704998692861,-4.1999998092651367
462.57747872453183,-12.100000381469727
463.57771511587816,0.699999988079071
464.57775919838059,-5.5
465.5776110094539,-8.8000001907348633
466.57727058649289,-1.2999999523162842
467.57673796689414,-6.5
468.5760131880379,-23.600000381469727
469.57509628729895,-6.5999999046325684
470.57398730204477,-20.899999618530273
471.57268626963196,-9.1999998092651367
472.57119322740982,-9.8999996185302734
473.56950821272039,-9.8000001907348633
474.56763126289479,-11.5
475.56556241525323,0.60000002384185791
476.56330170711954,-16.899999618530273
477.5608491757921,-3.2999999523162842
478.55820485857475,-9.3999996185302734
479.55536879275314,-7.5
480.55234101561109,3.9000000953674316
481.54912156442151,6.3000001907348633
482.54571047644822,11.899999618530273
483.54210778894412,25.899999618530273
484.5383135391603,23.399999618530273
485.53432776433874,6.9000000953674316
486.53015050170507,16.100000381469727
487.52578178848125,-8.6999998092651367
488.521221661882,0.5
489.51647015911294,-6
490.511527317376,-15.300000190734863
491.50639317384957,-8
492.50106776571556,-21.399999618530273
493.49555113015049,-10.600000381469727
494.48984330431631,-5.5
495.48394432536406,-12
496.477854230443,-11.399999618530273
497.47157305668588,-10.600000381469727
498.46510084122747,-3.2000000476837158
499.45843762119148,-20.299999237060547
500.45158343368166,-4.4000000953674316
501.44453831580358,-18.200000762939453
502.43730230465735,-11.899999618530273
503.4298754373267,-2.9000000953674316
504.42225775089173,-10.399999618530273
505.41444928242527,-4.8000001907348633
506.40645006898194,-8.8000001907348633
507.39826014762366,-13.5
508.38987955538869,-9.6000003814697266
509.38130832932075,-7.1999998092651367
510.3725465064399,-6.6999998092651367
511.36359412377169,-12.5
512.35445121832345,-15.600000381469727
513.345117827108,-13.300000190734863
514.33559398710713,-15.199999809265137
515.32587973531554,-5
516.31597510870961,-16.399999618530273
517.305880144253,-6.8000001907348633
518.29559487891856,-16.600000381469727
519.2851193496499,-9.8000001907348633
520.27445359339254,-9.3000001907348633
521.2635976470865,-15.199999809265137
522.25255154765728,-18.799999237060547
523.24131533202308,-2
524.22988903709665,-14.600000381469727
525.21827269978348,-10.800000190734863
526.20646635697267,-13
527.19447004554968,-8.1999998092651367
528.18228380239634,-5.1999998092651367
529.16990766437993,-19.399999618530273
530.15734166836046,-14.300000190734863
531.14458585119428,-11.899999618530273
532.13164024971957,-15.600000381469727
533.11850490077813,-14.600000381469727
534.1051798411936,0.5
535.09166510778778,-8.1000003814697266
536.0779607373679,-8.8999996185302734
537.06406676674123,-17.100000381469727
538.04998323269865,-8.6999998092651367
539.03571017202739,-4.9000000953674316
540.02124762150379,-13.5
541.00659561790053,-16.200000762939453
541.99175419797393,-5.9000000953674316
542.97672339848032,-14.600000381469727
543.96150325615963,7.4000000953674316
544.94609380775364,-17.399999618530273
545.93049508998593,-9.5
546.91470713957824,-12.800000190734863
547.89872999324143,-14.5
548.88256368767543,-7.9000000953674316
549.86620825957834,-7.3000001907348633
550.84966374563555,-11.300000190734863
551.83293018252334,-13
552.81600760691072,-7.5999999046325684
553.79889605546123,-11.600000381469727
554.78159556482933,-9.6000003814697266
555.76410617165857,-11.300000190734863
556.74642791258339,-27.5
557.72856082423277,-13.899999618530273
558.71050494323026,-8.8999996185302734
559.692260306183,-8.5
560.67382694969274,-8
561.65520491036477,-14
562.63639422477536,-13
563.617394929508,2.0999999046325684
564.59820706113169,10.800000190734863
565.5788306562099,35.200000762939453
566.55926575129524,57.799999237060547
567.53951238293848,65.800003051757813
568.51957058766675,68.199996948242188
569.49944040201626,29.5
570.47912186250869,16.799999237060547
571.45861500565115,-6.5999999046325684
572.43791986795441,-8.3000001907348633
573.417036485911,-12.899999618530273
574.3959648960099,-14.300000190734863
575.37470513472908,-9
576.35325723854476,-10.600000381469727
577.3316212439131,2.7000000476837158
578.309797187294,-10.199999809265137
579.28778510513439,-6.0999999046325684
580.26558503387241,-7.1999998092651367
581.24319700993874,-14.5
582.22062106975318,-15.5
583.1978572497319,-8.1999998092651367
584.17490558627833,-8.3000001907348633
585.15176611579591,2.9000000953674316
586.12843887466624,-12.600000381469727
587.1049238992764,-21.700000762939453
588.08122122599343,-8.6000003814697266
589.05733089119167,-6.1999998092651367
590.03325293122,-10.100000381469727
591.00898738242722,-9.3000001907348633
591.98453428115681,-5
592.95989366373578,-8
593.93506556649481,-14.699999809265137
594.91005002574457,-9.6999998092651367
595.88484707779207,-9.1000003814697266
596.85945675894072,-15.199999809265137
597.83387910547935,-14.5
598.808114153695,-4.5
599.78216193985281,-8.8000001907348633
600.7560225002253,-14
601.729695871074,-13.800000190734863
602.70318208864228,-8.5
603.67648118917714,-8.3999996185302734
604.64959320891285,-7.1999998092651367
605.62251818407458,-16
606.59525615087659,-6.4000000953674316
607.56780714553315,-13.5
608.54017120424214,-9.8000001907348633
609.51234836320145,-21.100000381469727
610.48433865859079,-13.100000381469727
611.45614212658984,-13.699999809265137
612.42775880336558,-8.1999998092651367
613.39918872508315,9.6999998092651367
614.37043192788951,1.8999999761581421
615.34148844793526,28.299999237060547
616.31235832134917,20.799999237060547
617.28304158426727,20.799999237060547
618.253538272802,1.7999999523162842
619.2238484230711,-2.0999999046325684
620.19397207117981,-15.300000190734863
621.16390925321321,-3.2999999523162842
622.13366000527276,-11.100000381469727
623.103224363429,-18.899999618530273
624.07260236375441,-3.0999999046325684
625.04179404231763,-12.5
626.01079943516561,-13.899999618530273
626.97961857835253,2.7999999523162842
627.94825150791621,-22.200000762939453
628.91669825988356,-14.399999618530273
629.8849588702833,-6.9000000953674316
630.85303337512414,-19.299999237060547
631.8209218104148,-14.600000381469727
632.7886242121549,-9.6999998092651367
633.75614061633678,-5.5
634.72347105893823,-16.700000762939453
635.69061557593523,-13.5
636.65757420329646,-10.399999618530273
637.6243469769779,-13.199999809265137
638.59093393293,-7.9000000953674316
639.55733510709615,-9.1999998092651367
640.5235505354085,-9.5
641.48958025379216,-15.5
642.45542429816669,-13.800000190734863
643.4210827044426,-24.5
644.38655550851945,-7.6999998092651367
645.351842746295,-13.800000190734863
646.31694445364883,-13.100000381469727
647.28186066646231,-10.100000381469727
648.24659142060591,-1.1000000238418579
649.21113675193737,-18.299999237060547
650.17549669631444,-11
651.13967128958211,-10
652.10366056757266,-13.300000190734863
653.067464566122,-15.300000190734863
654.03108332104784,-7.8000001907348633
654.99451686816428,-5.5999999046325684
655.95776524327266,-14.199999809265137
656.920828482178,-6.3000001907348633
657.88370662066518,-10.300000190734863
658.84639969451382,-4.8000001907348633
659.80890773950159,-3.2000000476837158
660.77123079139164,-9.5
661.733368885938,-11.199999809265137
662.69532205889118,-19.5
663.65709034599786,0.40000000596046448
664.61867378298484,-10.699999809265137
665.58007240558072,-5.8000001907348633
666.54128624949954,-18.899999618530273
667.50231535045532,1.8999999761581421
668.46315974414392,-6.5999999046325684
669.42381946626119,-3.5999999046325684
670.38429455249025,-7.6999998092651367
671.34458503851238,-3.0999999046325684
672.30469095999615,-12.100000381469727
673.2646123525974,-9.1999998092651367
674.224349251972,-2.7999999523162842
675.18390169377017,-18.299999237060547
676.14326971362243,-3.7000000476837158
677.10245334716274,-13.300000190734863
678.0614526300069,-0.60000002384185791
679.02026759777618,1
679.97889828607,-15
680.93734473048789,-9.6999998092651367
681.89560696662011,-13.600000381469727
682.85368503004611,-7.0999999046325684
683.81157895634169,-14
684.76928878106992,-6.0999999046325684
