-777.87311982425126,17.299999237060547
-776.63374739947358,17.299999237060547
-775.39461482227671,19.299999237060547
-774.15572204389719,22
-772.91706901559337,19.200000762939453
-771.67865568863454,21.399999618530273
-770.44048201429,15.600000381469727
-769.20254794384346,14.199999809265137
-767.96485342860433,15.399999618530273
-766.7273984198855,19.5
-765.49018286900719,14.300000190734863
-764.25320672730777,15.899999618530273
-763.01646994613657,21.899999618530273
-761.77997247685744,22.799999237060547
-760.5437142708488,10.399999618530273
-759.307695279489,20.100000381469727
-758.07191545417118,10.399999618530273
-756.83637474631723,13.300000190734863
-755.601073107342,21.799999237060547
-754.36601048868215,8.8999996185302734
-753.13118684178153,18
-751.89660211810587,16.899999618530273
-750.66225626912092,9
-749.42814924630693,15.100000381469727
-748.19428100116238,10.600000381469727
-746.960651485193,15.699999809265137
-745.72726064991912,19.299999237060547
-744.49410844686827,16.5
-743.26119482758622,2.7999999523162842
-742.02851974362966,24
-740.79608314656616,11.699999809265137
-739.5638849879706,15.100000381469727
-738.331925219436,10.699999809265137
-737.10020379257367,20.799999237060547
-735.86872065898388,21.899999618530273
-734.63747577031063,12.300000190734863
-733.406469078187,13.399999618530273
-732.17570053426061,23.399999618530273
-730.94517009020092,25.600000381469727
-729.71487769768464,20.899999618530273
-728.48482330838851,17.200000762939453
-727.25500687402564,10.899999618530273
-726.02542834630549,12.899999618530273
-724.79608767694481,14.300000190734863
-723.56698481768581,10.199999809265137
-722.33811972027434,6.0999999046325684
-721.10949233647079,14.199999809265137
-719.88110261805014,21.5
-718.652950516791,9.8999996185302734
-717.42503598449366,14.5
-716.19735897296232,14.899999618530273
-714.96991943401918,16.799999237060547
-713.74271731949739,18.600000381469727
-712.515752581241,13.600000381469727
-711.28902517110146,14.800000190734863
-710.06253504095184,19.5
-708.83628214267264,13.600000381469727
-707.610266428148,14.199999809265137
-706.384487849291,27.100000381469727
-705.15894635801124,3.9000000953674316
-703.93364190623652,18.799999237060547
-702.70857444590911,20.799999237060547
-701.48374392898586,3.2999999523162842
-700.25915030741635,22.700000762939453
-699.03479353318289,12.5
-697.81067355827872,19.5
-696.58679033470071,10.100000381469727
-695.36314381444936,17.5
-694.1397339495652,5.4000000953674316
-692.91656069207056,10.899999618530273
-691.69362399401689,19.299999237060547
-690.47092380745926,4.4000000953674316
-689.24846008447821,11.300000190734863
-688.02623277714338,17.700000762939453
-686.80424183756077,15.899999618530273
-685.58248721782911,10.100000381469727
-684.360968870069,13.5
-683.13968674641546,2.7000000476837158
-681.91864079900733,16.5
-680.69783097999425,7.5999999046325684
-679.4772572415477,5.0999999046325684
-678.25691953584283,13.199999809265137
-677.0368178150693,8.5
-675.81695203143136,18.200000762939453
-674.59732213714051,20.700000762939453
-673.37792808442282,3.7999999523162842
-672.15876982551163,13
-670.9398473126621,22.600000381469727
-669.72116049812939,6.8000001907348633
-668.50270933419051,8.1999998092651367
-667.28449377312245,17.700000762939453
-666.0665137672313,11.800000190734863
-664.84876926881952,24.200000762939453
-663.63126023020413,10.300000190734863
-662.413986603724,16.399999618530273
-661.19694834172151,18.799999237060547
-659.9801453965465,8.8000001907348633
-658.76357772057054,4
-657.54724526617247,14.5
-656.33114798573843,16.799999237060547
-655.11528583168,10
-653.89965875640155,11.699999809265137
-652.68426671233283,12.300000190734863
-651.46910965191455,7.6999998092651367
-650.25418752759469,19.100000381469727
-649.03950029183216,1.6000000238418579
-647.825047897104,5.8000001907348633
-646.61083029589463,7.6999998092651367
-645.39684744069928,12.100000381469727
-644.18309928402778,3.2000000476837158
-642.96958577839359,19
-641.75630687633929,21.299999237060547
-640.54326253040745,7.6999998092651367
-639.33045269314425,10.699999809265137
-638.117877317125,6.9000000953674316
-636.90553635492142,8.6000003814697266
-635.69342975913059,9.5
-634.481557482357,4.6999998092651367
-633.26991947720853,0.699999988079071
-632.05851569631523,19.700000762939453
-630.84734609231418,17.600000381469727
-629.63641061784983,5.0999999046325684
-628.4257092255848,10.5
-627.21524186819988,24.299999237060547
-626.00500849836862,0.89999997615814209
-624.79500906879366,13.199999809265137
-623.58524353217763,7.8000001907348633
-622.37571184124863,13.5
-621.1664139487275,16.899999618530273
-619.95734980736415,4.5999999046325684
-618.74851936991581,-0.800000011920929
-617.539922589136,15
-616.33155941781479,17.600000381469727
-615.12342980873473,11.399999618530273
-613.91553371470036,5.6999998092651367
-612.70787108852346,6.1999998092651367
-611.50044188302672,12.5
-610.29324605104739,6.5
-609.08628354543725,-1.5
-607.87955431905175,5.5
-606.67305832475722,14.199999809265137
-605.46679551544912,8.6000003814697266
-604.26076584400835,15.600000381469727
-603.05496926335218,17.5
-601.849405726387,-2.9000000953674316
-600.64407518604821,11.399999618530273
-599.438977595275,7
-598.234112907021,9.3000001907348633
-597.02948107425073,7.4000000953674316
-595.82508204993974,5.9000000953674316
-594.62091578707441,-3
-593.41698223864842,16.399999618530273
-592.21328135768454,5
-591.009813097191,12.300000190734863
-589.80657741020877,14.899999618530273
-588.60357424978247,-2.5999999046325684
-587.4008035689676,16.299999237060547
-586.19826532083425,3
-584.99595945845977,8.5
-583.793885934936,9.1999998092651367
-582.5920447033659,8.8000001907348633
-581.39043571686307,10.800000190734863
-580.18905892855764,12.699999809265137
-578.98791429158518,12
-577.78700175909034,8
-576.58632128423778,13.300000190734863
-575.38587282020308,11.300000190734863
-574.1856563201618,11.5
-572.98567173731681,16.299999237060547
-571.78591902487278,12.600000381469727
-570.58639813603986,7.0999999046325684
-569.38710902406274,10.5
-568.18805164217156,-1.1000000238418579
-566.98922594362557,-1.7999999523162842
-565.790631881684,15.100000381469727
-564.59226940962253,6.1999998092651367
-563.39413848073127,13.399999618530273
-562.19623904831133,7
-560.99857106566742,1.5
-559.80113448612792,13
-558.60392926301938,9.6999998092651367
-557.40695534968654,4.4000000953674316
-556.21021269949415,4.5999999046325684
-555.0137012658015,5
-553.81742100199153,24.399999618530273
-552.62137186145628,10.800000190734863
-551.4255537975896,-0.10000000149011612
-550.22996676381626,8.1000003814697266
-549.03461071355377,3.7999999523162842
-547.8394856002451,12.600000381469727
-546.64459137733138,9.3999996185302734
-545.449927998272,3.7000000476837158
-544.25549541654073,15.399999618530273
-543.06129358562066,7.1999998092651367
-541.86732245900566,-4.3000001907348633
-540.67358199019873,5.6999998092651367
-539.48007213271376,20.5
-538.28679284007922,3.5999999046325684
-537.09374406584539,8.5
-535.900925763548,8.3999996185302734
-534.70833788675736,11.399999618530273
-533.51598038904558,10.899999618530273
-532.32385322399932,6.5999999046325684
-531.13195634520889,9.1999998092651367
-529.94028970629006,8.1000003814697266
-528.74885326085314,6
-527.55764696253573,7.6999998092651367
-526.36667076497724,8
-525.17592462183165,12
-523.985408486762,7.6999998092651367
-522.79512231344415,16.700000762939453
-521.60506605556839,-1
-520.41523966682871,9.3000001907348633
-519.22564310093912,9.6000003814697266
-518.0362763116209,2.2999999523162842
-516.84713925260257,6
-515.65823187763453,-1
-514.46955414046715,12.399999618530273
-513.28110599486718,-5.9000000953674316
-512.09288739461954,-3
-510.90489829350736,10.800000190734863
-509.71713864533194,-3.5999999046325684
-508.52960840390369,-2.0999999046325684
-507.3423075230512,5.8000001907348633
-506.15523595660488,8.8999996185302734
-504.96839365841697,3.5999999046325684
-503.78178058233607,9.6000003814697266
-502.59539668223624,4.3000001907348633
-501.4092419119952,15
-500.223316225507,13.199999809265137
-499.0376195766712,2.2000000476837158
-497.85215191940188,10.300000190734863
-496.666913207624,7.5999999046325684
-495.48190339527719,9.5
-494.29712243630638,0.20000000298023224
-493.11257028467116,19.600000381469727
-491.928246894342,5.3000001907348633
-490.7441522193003,5.1999998092651367
-489.56028621353471,8
-488.37664883105754,5.9000000953674316
-487.19324002587746,9.5
-486.01005975202315,16
-484.8271079635324,-0.10000000149011612
-483.6443846144557,3
-482.46188965885085,3.7000000476837158
-481.27962305079018,6.4000000953674316
-480.09758474435512,2.2999999523162842
-478.91577469364165,6.3000001907348633
-477.73419285275304,4.5999999046325684
-476.55283917580709,0.5
-475.37171361693436,1.1000000238418579
-474.19081613026719,0.60000002384185791
-473.010146669958,5.5999999046325684
-471.82970519017181,4.9000000953674316
-470.64949164507379,5.5
-469.46950598885633,7.0999999046325684
-468.28974817570452,0.5
-467.1102181598344,-4
-465.93091589545475,-2.2999999523162842
-464.75184133679977,4.0999999046325684
-463.57299443810552,-3
-462.39437515362624,2
-461.2159834376198,1
-460.03781924436043,-5.6999998092651367
-458.85988252813513,1.7000000476837158
-457.68217324323632,6.1999998092651367
-456.50469134396917,5.4000000953674316
-455.32743678465886,-8.8999996185302734
-454.15040951962692,3
-452.97360950321672,-0.699999988079071
-451.79703668977709,1.1000000238418579
-450.62069103367321,4
-449.4445724892721,1.7999999523162842
-448.26868101096989,-5.0999999046325684
-447.09301655315357,1.2999999523162842
-445.9175790702302,5.6999998092651367
-444.74236851661954,-0.40000000596046448
-443.56738484675407,-2.5999999046325684
-442.39262801506811,-7.3000001907348633
-441.21809797601236,6.1999998092651367
-440.0437946840575,3.2999999523162842
-438.86971809366878,0.30000001192092896
-437.69586815933872,0.40000000596046448
-436.52224483555256,4.0999999046325684
-435.34884807682647,-2.4000000953674316
-434.17567783767481,11
-433.00273407262466,1.7000000476837158
-431.83001673621948,4.5999999046325684
-430.65752578300453,0.20000000298023224
-429.4852611675542,1.8999999761581421
-428.31322284443013,4.8000001907348633
-427.14141076821943,13.600000381469727
-425.96982489351649,8.1999998092651367
-424.79846517493388,4.5999999046325684
-423.62733156708055,5.8000001907348633
-422.45642402459453,4.5999999046325684
-421.28574250211022,0.800000011920929
-420.1152869542766,3.2000000476837158
-418.94505733575534,-3.2000000476837158
-417.77505360122632,0.20000000298023224
-416.60527570536397,0.40000000596046448
-415.43572360287,6.3000001907348633
-414.26639724844608,-3.4000000953674316
-413.09729659681216,-2.5
-411.92842160268992,10
-410.7597722208302,-4
-409.59134840596926,2.7999999523162842
-408.42315011287792,0.10000000149011612
-407.2551772963252,7
-406.087429911091,1
-404.9199079119735,2.7000000476837158
-403.75261125377619,7.1999998092651367
-402.58553989131542,4.0999999046325684
-401.41869377941293,-3.7000000476837158
-400.25207287291232,5.9000000953674316
-399.08567712666627,-0.20000000298023224
-397.919506495522,-2.5
-396.75356093436312,-4.6999998092651367
-395.58784039806596,1.7999999523162842
-394.42234484151959,-10.699999809265137
-393.25707421963307,0.30000001192092896
-392.09202848732275,-7
-390.92720759950862,6.8000001907348633
-389.76261151112521,-0.699999988079071
-388.59824017713072,-4.8000001907348633
-387.43409355247422,-4.5
-386.27017159212846,-7.4000000953674316
-385.10647425107527,5
-383.94300148430193,-3.5999999046325684
-382.77975324681393,0.699999988079071
-381.616729493624,-4.4000000953674316
-380.453930179754,0.10000000149011612
-379.29135526024038,-2.2000000476837158
-378.129004690134,0.10000000149011612
-376.96687842448227,4.4000000953674316
-375.80497641835791,-8.1999998092651367
-374.64329862683917,3.5999999046325684
-373.4818450050152,-3.0999999046325684
-372.32061550798426,2.4000000953674316
-371.15961009086277,-3.4000000953674316
-369.99882870877082,-4.5
-368.83827131683756,-1.2000000476837158
-367.677937870214,-5.5999999046325684
-366.51782832404751,-1.7000000476837158
-365.3579426335109,-5.4000000953674316
-364.19828075377518,5.3000001907348633
-363.03884264003136,4.4000000953674316
-361.87962824747046,1.5
-360.7206375313126,-0.60000002384185791
-359.56187044677063,-8.1000003814697266
-358.403326949081,2.5
-357.24500699348027,8.3000001907348633
-356.08691053522307,-5.3000001907348633
-354.92903752956954,-7.8000001907348633
-353.771387931798,-0.89999997615814209
-352.61396169719228,-11.100000381469727
-351.45675878105067,4.0999999046325684
-350.29977913867333,-4.5
-349.14302272538407,3.4000000953674316
-347.98648949651215,6.0999999046325684
-346.83017940739046,14.100000381469727
-345.67409241337191,12.5
-344.51822846982031,3.2000000476837158
-343.36258753210313,12.800000190734863
-342.20716955560965,10.399999618530273
-341.05197449572188,12.100000381469727
-339.89700230785638,5.8000001907348633
-338.74225294741518,4.8000001907348633
-337.58772636983667,4.8000001907348633
-336.43342253054652,-2.0999999046325684
-335.27934138499768,0.699999988079071
-334.12548288865037,2.2999999523162842
-332.97184699696481,-3.2999999523162842
-331.81843366542853,-2.2999999523162842
-330.66524284953266,2.7000000476837158
-329.51227450476654,0
-328.35952858665769,-1.6000000238418579
-327.20700505071909,-1.8999999761581421
-326.05470385248555,-8.8999996185302734
-324.90262494750459,3.7000000476837158
-323.75076829132558,-0.40000000596046448
-322.59913383951789,8.3000001907348633
-321.44772154765633,4.9000000953674316
-320.29653137132846,-8.1999998092651367
-319.14556326613092,-2.4000000953674316
-317.99481718767311,3.0999999046325684
-316.84429309157531,3
-315.69399093346874,-7
-314.54391066899007,0.699999988079071
-313.39405225379596,-1.6000000238418579
-312.24441564354129,5.0999999046325684
-311.09500079390455,-6.1999998092651367
-309.94580766056788,-1.3999999761581421
-308.79683619922253,-1.5
-307.64808636558337,7.5999999046325684
-306.49955811535619,2.9000000953674316
-305.35125140426862,-3.7000000476837158
-304.203166188061,-2.5999999046325684
-303.05530242247733,7.8000001907348633
-301.90766006327794,-4.0999999046325684
-300.76023906623413,16.299999237060547
-299.61303938712081,-5
-298.46606098173288,7.6999998092651367
-297.31930380586527,2.7000000476837158
-296.17276781533837,1.8999999761581421
-295.02645296596893,6.4000000953674316
-293.88035921359551,11.100000381469727
-292.73448651404942,18.799999237060547
-291.58883482319834,4.3000001907348633
-290.44340409690449,6.1999998092651367
-289.29819429103554,1.7000000476837158
-288.15320536148647,9.6999998092651367
-287.0084372641486,8.1999998092651367
-285.86388995493689,4.5999999046325684
-284.7195633897627,9.1999998092651367
-283.57545752455371,8
-282.431572315254,10.300000190734863
-281.28790771781496,11.399999618530273
-280.1444636881879,5.5999999046325684
-279.00124018235692,9.5
-277.8582371562934,16.100000381469727
-276.71545456599597,7.0999999046325684
-275.57289236746692,12.600000381469727
-274.43055051671945,10.399999618530273
-273.28842896977221,11.600000381469727
-272.14652768267115,3.7000000476837158
-271.00484661145128,5.3000001907348633
-269.86338571217493,7.4000000953674316
-268.72214494090622,21.899999618530273
-267.581124253722,8.6999998092651367
-266.44032360671372,7.5
-265.29974295597458,11.899999618530273
-264.159382257616,6.6999998092651367
-263.01924146776037,16.799999237060547
-261.87932054252815,8.5
-260.73961943807444,14.899999618530273
-259.60013811053796,30.399999618530273
-258.46087651608468,17.600000381469727
-257.32183461088971,21.100000381469727
-256.18301235113358,28.399999618530273
-255.04440969300595,26.200000762939453
-253.90602659271462,43.299999237060547
-252.76786300647473,21.299999237060547
-251.62991889051045,30.399999618530273
-250.49219420105146,21.899999618530273
-249.35468889435288,19.399999618530273
-248.217402926668,39.900001525878906
-247.08033625425924,21.5
-245.94348883341445,23.600000381469727
-244.80686062040877,14.899999618530273
-243.67045157154826,29.100000381469727
-242.53426164314442,33.599998474121094
-241.39829079150877,25.200000762939453
-240.26253897297829,25.100000381469727
-239.12700614388814,38.599998474121094
-237.99169226059348,34.700000762939453
-236.85659727945676,26.700000762939453
-235.72172115684771,44.599998474121094
-234.58706384914331,47.5
-233.4526253127442,23.899999618530273
-232.31840550405468,35.099998474121094
-231.18440437947902,37.900001525878906
-230.05062189545242,39.099998474121094
-228.91705800840282,42.5
-227.78371267477996,50.099998474121094
-226.65058585103725,40.799999237060547
-225.51767749363898,48.400001525878906
-224.38498755906403,55
-223.2525160037967,62.400001525878906
-222.1202627843395,66.0999984741211
-220.98822785719858,67.0999984741211
-219.85641117888918,62.099998474121094
-218.7248127059429,81.5
-217.59343239489681,74.4000015258789
-216.46227020230072,72.800003051757813
-215.3313260847226,71.300003051757813
-214.20059999872137,79.5999984741211
-213.07009190087956,74.699996948242188
-211.9398017477979,83.5999984741211
-210.80972949606621,83.5999984741211
-209.67987510230523,71.4000015258789
-208.5502385231357,65
-207.42081971518564,77
-206.29161863510308,56.700000762939453
-205.16263523954149,56.5
-204.03386948516163,65.5999984741211
-202.90532132864428,56.799999237060547
-201.77699072666474,74.5999984741211
-200.64887763592742,51.900001525878906
-199.52098201313311,68.0999984741211
-198.39330381500076,55.900001525878906
-197.26584299825117,47.5
-196.13859951962695,53.900001525878906
-195.01157333587253,48
-193.88476440374143,50.599998474121094
-192.75817268001083,54.700000762939453
-191.63179812144881,46.400001525878906
-190.50564068485255,62.099998474121094
-189.3797003270156,53.700000762939453
-188.25397700474423,53.299999237060547
-187.12847067486291,53.5
-186.00318129420339,53.599998474121094
-184.87810881960104,61.400001525878906
-183.75325320790944,61.900001525878906
-182.62861441598398,74.699996948242188
-181.50419240070187,79.5
-180.37998711894033,73.699996948242188
-179.25599852759296,73.5999984741211
-178.13222658356062,100.5
-177.00867124376236,99.9000015258789
-175.88533246510815,119.30000305175781
-174.76221020454068,141.80000305175781
-173.63930441900084,153.10000610351563
-172.51661506544224,174.5
-171.39414210082759,197.69999694824219
-170.27188548212871,222.60000610351563
-169.14984516633558,257.39999389648438
-168.02802111043638,266.60000610351563
-166.90641327144112,283.39999389648438
-165.78502160636344,277.60000610351563
-164.66384607223154,278.29998779296875
-163.54288662607541,286.79998779296875
-162.4221432249451,275.29998779296875
-161.30161582589426,257.89999389648438
-160.18130438598928,255.19999694824219
-159.06120886230929,242.69999694824219
-157.94132921194432,232.30000305175781
-156.82166539198624,217.39999389648438
-155.70221735953965,220.80000305175781
-154.58298507173095,208.69999694824219
-153.46396848568111,227.19999694824219
-152.34516755853474,231.80000305175781
-151.22658224743282,229.10000610351563
-150.10821250953813,237
-148.99005830202077,229
-147.87211958205626,228.89999389648438
-146.75439630683832,255.19999694824219
-145.63688843355885,269.79998779296875
-144.51959591943705,281.29998779296875
-143.40251872168847,292.20001220703125
-142.28565679753956,307.70001220703125
-141.16901010423499,312.5
-140.05257859902849,315.79998779296875
-138.93636223917383,334.29998779296875
-137.82036098194294,361.70001220703125
-136.70457478462595,369.20001220703125
-135.58900360449843,391.70001220703125
-134.47364739887416,412.39999389648438
-133.35850612506329,449.5
-132.24357974038321,463.29998779296875
-131.12886820217136,475.5
-130.01437146776334,500.20001220703125
-128.90008949451476,519.9000244140625
-127.78602223979033,555
-126.67216966095839,577.20001220703125
-125.55853171540366,589.70001220703125
-124.44510836051813,631.20001220703125
-123.33189955371017,636.79998779296875
-122.2189052523845,671.0999755859375
-121.10612541397313,685.79998779296875
-119.9935599959008,713.4000244140625
-118.88120895561769,736.5
-117.76907225057403,747.9000244140625
-116.65714983823818,734.70001220703125
-115.54544167607855,730.5
-114.43394772158354,786.70001220703125
-113.32266793224335,770
-112.21160226556458,801.4000244140625
-111.10075067906291,814.20001220703125
-109.99011313026131,816.9000244140625
-108.87968957669545,830.9000244140625
-107.76947997590833,891.5999755859375
-106.65948428545926,886.4000244140625
-105.54970246290759,918.79998779296875
-104.44013446582903,931.20001220703125
-103.33078025181567,974.5999755859375
-102.22163977845048,992.9000244140625
-101.11271300335284,997.0999755859375
-100.00399988412755,1034.9000244140625
-98.8955003784049,1044.0999755859375
-97.787214443818812,1116.5
-96.679142038015925,1221.5
-95.571283118651991,1347.199951171875
-94.46363764339003,1430.5999755859375
-93.356205569909434,1469.0999755859375
-92.248986855895055,1427.0999755859375
-91.141981459042654,1297.199951171875
-90.035189337055272,1235.699951171875
-88.928610447654137,1201.800048828125
-87.8222447485623,1241.5
-86.716092197515536,1233.199951171875
-85.610152752264185,1252.699951171875
-84.504426370558576,1262.5
-83.3989130101636,1272.0999755859375
-82.29361262886232,1289.199951171875
-81.188525184439641,1338.199951171875
-80.083650634691367,1445.4000244140625
-78.978988937416943,1591.699951171875
-77.8745400504431,1775.0999755859375
-76.7703039315893,1996
-75.666280538693172,2223.5
-74.56246982959965,2302.10009765625
-73.45887176217002,2265
-72.355486294265575,2104.300048828125
-71.2523133837658,1939
-70.149352988557439,1744.9000244140625
-69.046605066534539,1609.300048828125
-67.944069575602043,1547.699951171875
-66.84174647367945,1510.699951171875
-65.739635718693535,1535.800048828125
-64.63773726857471,1517.5999755859375
-63.5360510812734,1538.300048828125
-62.434577114750937,1609.800048828125
-61.3333153269632,1757.4000244140625
-60.232265675895178,1959.800048828125
-59.131428119522752,2318.199951171875
-58.030802615854554,2930.39990234375
-56.930389122886481,3535.800048828125
-55.830187598636257,4051.300048828125
-54.730198001132521,4123.60009765625
-53.630420288413006,3793.699951171875
-52.530854418515446,3337.39990234375
-51.431500349504859,2896.39990234375
-50.332358039440805,2818
-49.233427446402857,2974.89990234375
-48.134708528470583,3553.199951171875
-47.036201243741743,4485.7001953125
-45.937905550323194,5836.10009765625
-44.839821406334522,8060.39990234375
-43.74194876988804,10625.400390625
-42.64428759913244,12256.2001953125
-41.5468378522055,12850.2001953125
-40.449599487265004,12417.099609375
-39.352572462472381,11802.7001953125
-38.255756736005424,11133.7001953125
-37.159152266047386,9900.2001953125
-36.062759010790614,7803.2001953125
-34.966576928443828,5865.5
-33.8706059772212,5269.5
-32.774846115338732,6573.2001953125
-31.679297301039696,11511.900390625
-30.583959492563736,16664.400390625
-29.488832648166863,18428.099609375
-28.393916726110547,17376
-27.299211684672628,11623.2998046875
-26.204717482129126,6935.2998046875
-25.110434076774254,5131
-24.016361426916774,4604.5
-22.922499490865448,4472.89990234375
-21.828848226945411,4158.2001953125
-20.735407593489072,3889.89990234375
-19.642177548834297,3349.800048828125
-18.549158051340783,3035
-17.456349059368222,3014
-16.363750531281767,2978
-15.271362425470215,3075.89990234375
-14.179184700326005,3082
-13.087217314247027,3143.699951171875
-11.995460225642091,3200.10009765625
-10.903913392940012,3351.5
-9.8125767745696066,3416.89990234375
-8.7214503289651475,3547.699951171875
-7.6305340145827358,3672.60009765625
-6.5398277898821107,3669
-5.4493316133357439,3174.5
-4.3590454434179264,2248.60009765625
-3.26896923861932,1224.5
-2.1791029574433196,682.70001220703125
-1.0894465583987767,352.39999389648438
-3.637978807091713E-12,279.5
1.0892367592168739,661.4000244140625
2.1782637607157085,1162.199951171875
3.2670810459494533,2083.800048828125
4.3556886563619628,3205.199951171875
5.4440866333861777,3727
6.5322750184368488,3810.89990234375
7.6202538529305457,3703.39990234375
8.7080231782692863,3645.300048828125
9.7955830358478124,3581
10.882933467048133,3461.199951171875
11.970074513241343,3444.60009765625
13.0570062157949,3353.699951171875
14.143728616063527,3354.300048828125
15.230241755389216,3316.39990234375
16.316545675103043,3324.10009765625
17.402640416532449,3304.89990234375
18.488526020995778,3591.5
19.574202529791364,4178.5
20.659669984221182,4550.2001953125
21.744928425567196,4948.10009765625
22.82997789510955,5134
23.914818434106564,5446.60009765625
24.99945008382565,7098.2998046875
26.083872885503297,11184
27.168086880381452,18023.19921875
28.252092109691148,21531.30078125
29.33588861464159,21019.400390625
30.419476436449258,16256.7998046875
31.502855616305169,9271.900390625
32.586026195402155,6426.39990234375
33.668988214920319,6432.2998046875
34.751741716028846,8223.599609375
35.834286739884192,10791.2998046875
36.916623327637353,12880.900390625
37.998751520428414,14178.400390625
39.080671359392,14848.400390625
40.162382885640909,15751.2001953125
41.243886140291579,15638.099609375
42.325181164447713,14481.099609375
43.406267999200281,12063.7998046875
44.4871466856257,8688.400390625
45.5678172648004,6509
46.648279777786229,5362.60009765625
47.72853426563961,4239
48.8085807694024,3794.89990234375
49.888419330107354,3696.199951171875
50.968049988779967,4062.699951171875
52.047472786436629,4714.10009765625
53.126687764075541,5366.2001953125
54.205694962698544,5722.60009765625
55.284494423289289,5474.7998046875
56.363086186827786,4739.89990234375
57.44147029427404,3799.10009765625
58.519646786589874,3130.10009765625
59.597615704718919,2703.10009765625
60.67537708960117,2408.699951171875
61.752930982163889,2318.800048828125
62.83027742332888,2242.199951171875
63.90741645399612,2217.300048828125
64.984348115074681,2206.300048828125
66.061072447448169,2258.699951171875
67.13758949199655,2278.39990234375
68.213899289597975,2416.800048828125
69.29000188109967,2683.199951171875
70.36589730736705,2949.39990234375
71.441585609234608,3254.39990234375
72.517066827535018,3522.39990234375
73.592341003088222,3586.300048828125
74.667408176715981,3466.699951171875
75.742268389207311,3170
76.816921681369422,2847.39990234375
77.891368093980418,2559.800048828125
78.965607667816585,2371.800048828125
80.039640443639655,2182.89990234375
81.113466462209544,2120.800048828125
82.187085764271615,2112.89990234375
83.260498390560315,2124.89990234375
84.333704381804637,2153.699951171875
85.40670377871902,2127.699951171875
86.479496622014267,2132.10009765625
87.552082952388446,2072.39990234375
88.624462810528712,2068.5
89.6966362371113,2138.39990234375
90.76860327281247,2347.39990234375
91.840363958286616,2507.89990234375
92.911918334189977,2592.800048828125
93.983266441158776,2437.300048828125
95.054408319829236,2295.300048828125
96.12534401081939,2137.199951171875
97.19607355474,1944
98.2665969922,1861.0999755859375
99.336914363786491,1846.4000244140625
100.40702571009024,1812.300048828125
101.47693107168197,1771.800048828125
102.54663048912334,1746.300048828125
103.61612400297781,1720.5999755859375
104.68541165378701,1702.199951171875
105.75449348208713,1666.9000244140625
106.82336952840706,1619.0999755859375
107.89203983326297,1610.5999755859375
108.96050443715831,1560.4000244140625
110.02876338060378,1538.5999755859375
111.09681670407736,1501.800048828125
112.16466444806247,1491.800048828125
113.23230665302981,1456.699951171875
114.2997433594428,1477.4000244140625
115.36697460774849,1475.800048828125
116.43400043838665,1429.300048828125
117.50082089179705,1419.800048828125
118.56743600839945,1405.300048828125
119.63384582860272,1387.300048828125
120.70005039281386,1350.5
121.76604974143083,1329.0999755859375
122.83184391483519,1330.800048828125
123.89743295340486,1269.199951171875
124.96281689750322,1222.800048828125
126.02799578748636,1177.5
127.09296966370857,1147.199951171875
128.15773856649867,1117.5
129.22230253619455,1089
130.28666161311048,1023
131.35081583755345,987.79998779296875
132.414765249825,930.9000244140625
133.47850989022481,923.20001220703125
134.54204979901988,894.70001220703125
135.60538501649535,858.20001220703125
136.66851558290364,806.20001220703125
137.73144153850444,804.79998779296875
138.79416292353926,768.5
139.85667977824414,744.29998779296875
140.91899214284422,723.20001220703125
141.9811000575537,698.29998779296875
143.0430035625759,642.5999755859375
144.10470269811231,635.5999755859375
145.16619750435348,618.20001220703125
146.22748802146998,604.4000244140625
147.28857428963602,578.9000244140625
148.3494563490076,571.5999755859375
149.41013423973891,567
150.47060800196778,551.0999755859375
151.53087767582292,545.5
152.59094330143125,512.9000244140625
153.65080491890512,532.4000244140625
154.71046256834779,545.29998779296875
155.76991628984433,544.9000244140625
156.82916612349436,566.0999755859375
157.88821210936294,612.70001220703125
158.94705428751695,628.0999755859375
160.00569269801963,653.29998779296875
161.06412738090876,688.9000244140625
162.12235837622939,735.20001220703125
163.18038572400837,732.70001220703125
164.23820946425803,736.5
165.29582963700341,742.4000244140625
166.35324628222952,695
167.41045943993777,709.4000244140625
168.4674691501059,637
169.52427545270439,591.5
170.58087838770371,547.0999755859375
171.63727799505432,482.10000610351563
172.6934743146976,443.39999389648438
173.74946738657491,394.89999389648438
174.80525725060761,352.5
175.86084394671525,307.29998779296875
176.91622751480463,267.89999389648438
177.97140799477529,265.89999389648438
179.02638542651403,238.60000610351563
180.08115984989854,218.30000305175781
181.13573130480836,222.39999389648438
182.1900998310939,191.19999694824219
183.24426546861469,204
184.29822825721203,189.39999389648438
185.35198823671635,164.60000610351563
186.40554544695078,182.60000610351563
187.45889992773846,179.10000610351563
188.51205171887523,173.19999694824219
189.5650008601624,162.19999694824219
190.61774739138855,174.89999389648438
191.67029135232588,163.69999694824219
192.72263278274659,170.39999389648438
193.77477172241379,175.30000305175781
194.82670821106694,160.69999694824219
195.87844228846188,173.39999389648438
196.92997399431806,189
197.98130336836039,161.19999694824219
199.03243045030285,191.19999694824219
200.083355279854,189.30000305175781
201.13407789669873,202.30000305175781
202.18459834053465,210.39999389648438
203.23491665102665,220.60000610351563
204.28503286785053,212.80000305175781
205.33494703066026,226.60000610351563
206.38465917910617,226.69999694824219
207.43416935282403,247.60000610351563
208.48347759144417,253
209.53258393459691,254.5
210.58148842188348,256.5
211.63019109291054,269.20001220703125
212.67869198727021,243.30000305175781
213.726991144551,249.60000610351563
214.775088604325,259
215.82298440615341,243.19999694824219
216.8706785896029,237
217.91817119421466,227.19999694824219
218.96546225952443,247.30000305175781
220.01255182506975,220.10000610351563
221.05943993036635,210.60000610351563
222.10612661491905,197.30000305175781
223.15261191823993,188
224.19889587981743,193.5
225.24497853913635,181.89999389648438
226.29085993566514,170.39999389648438
227.33654010887221,172.39999389648438
228.38201909822055,167.39999389648438
229.42729694314221,150.60000610351563
230.47237368309288,149.30000305175781
231.51724935748462,149
232.56192400574764,146.89999389648438
233.60639766728673,141.39999389648438
234.65067038150482,135.89999389648438
235.69474218779396,141.60000610351563
236.73861312553527,124
237.78228323410804,127.40000152587891
238.82575255286974,119.80000305175781
239.86902112117787,123.59999847412109
240.9120889783826,129.69999694824219
241.95495616381777,111.80000305175781
242.99762271681357,140.10000610351563
244.04008867668745,125.09999847412109
245.08235408274959,131.39999389648438
246.1244189743029,139.69999694824219
247.16628339063755,136.10000610351563
248.20794737103279,146.5
249.24941095476788,136.39999389648438
250.29067418110571,133.80000305175781
251.33173708930008,140
252.37259971859567,132.5
253.41326210823536,124.69999694824219
254.45372429744384,114.09999847412109
255.49398632544035,125.09999847412109
256.53404823143683,107
257.57391005463069,103.90000152587891
258.61357183421751,95
259.65303360938196,86.5999984741211
260.69229541928871,89.800003051757813
261.73135730310787,78.4000015258789
262.77021929999864,76
263.80888144910386,62
264.84734378955909,68.4000015258789
265.88560636049988,69
266.92366920103996,61.200000762939453
267.9615323502876,74.0999984741211
268.99919584735289,65.4000015258789
270.03665973132047,57.400001525878906
271.07392404127677,77.9000015258789
272.1109888162955,63
273.14785409544129,68
274.18451991776965,78
275.22098632233428,62.799999237060547
276.25725334816525,89.300003051757813
277.29332103429442,77.9000015258789
278.32918941974458,69.300003051757813
279.36485854352395,79.5
280.40032844463531,71.800003051757813
281.43559916207232,71.5999984741211
282.4706707348214,71.9000015258789
283.50554320185074,66.5
284.540216602134,59.400001525878906
285.57469097462854,66.9000015258789
286.60896635827521,75
287.6430427920186,61.799999237060547
288.67692031479055,63.200000762939453
289.71059896550651,58.799999237060547
290.74407878308375,51.799999237060547
291.777359806425,65.800003051757813
292.81044207441846,38.700000762939453
293.84332562596137,48
294.87601049991827,48.200000762939453
295.90849673516095,41.599998474121094
296.94078437055396,32.5
297.97287344493816,46.099998474121094
299.00476399715808,35.599998474121094
300.03645606604368,26.5
301.06794969041584,38.200000762939453
302.09924490909361,31.700000762939453
303.13034176088149,40
304.16124028456943,21.399999618530273
305.1919405189492,22.299999237060547
306.222442502798,23.399999618530273
307.25274627488216,25.5
308.2828518739625,29.700000762939453
309.31275933879624,18.399999618530273
310.34246870811512,22.200000762939453
311.37198002066361,14.199999809265137
312.40129331515891,19.600000381469727
313.43040863031638,24.5
314.45932600484593,30.799999237060547
315.48804547744476,15.399999618530273
316.51656708679729,24.5
317.54489087158618,28.100000381469727
318.57301687048675,31
319.60094512215619,28.299999237060547
320.62867566524437,20.5
321.65620853840483,26.200000762939453
322.68354378026197,8
323.71068142945296,21
324.73762152458949,18.600000381469727
325.76436410428141,7.5
326.79090920712588,13.800000190734863
327.81725687171638,7.6999998092651367
328.84340713663732,20
329.86936004045674,-0.30000001192092896
330.8951156217463,6.5999999046325684
331.92067391905039,13.5
332.9460349709243,8.5
333.97119881590334,14.899999618530273
334.99616549251732,16.100000381469727
336.02093503928518,13.399999618530273
337.04550749471673,10.699999809265137
338.06988289731453,26.600000381469727
339.09406128557566,30.799999237060547
340.11804269798085,34
341.14182717300719,49.5
342.16541474912265,49.900001525878906
343.18880546478249,36.099998474121094
344.21199935844015,39.200000762939453
345.23499646853088,47
346.25779683349174,29.100000381469727
347.2804004917416,17.600000381469727
348.30280748169571,19.399999618530273
349.3250178417602,26.700000762939453
350.34703161032849,13.699999809265137
351.36884882579034,11.5
352.39046952652461,10.300000190734863
353.41189375090107,15.300000190734863
354.43312153727675,8.1999998092651367
355.45415292401049,-2.7000000476837158
356.47498794944113,21.899999618530273
357.49562665190388,-0.800000011920929
358.51606906973029,0.10000000149011612
359.53631524122466,-0.20000000298023224
360.55636520471126,15.899999618530273
361.576218998478,10.800000190734863
362.59587666081825,-1
363.6153382300181,10.100000381469727
364.63460374434362,2.9000000953674316
365.65367324206454,10.699999809265137
366.67254676143239,5
367.69122434069686,1.7000000476837158
368.70970601810041,-0.20000000298023224
369.7279918318618,-5
370.74608182021075,-2.7999999523162842
371.7639760213533,-6
372.78167447349733,-8.3999996185302734
373.79917721483071,5.6999998092651367
374.81648428354674,-3.0999999046325684
375.8335957178133,-5.4000000953674316
376.85051155580732,10.199999809265137
377.86723183568211,-3.2999999523162842
378.88375659558915,3.7999999523162842
379.90008587367265,-4.6999998092651367
380.91621970806045,-2.7999999523162842
381.932158136884,8.8999996185302734
382.94790119825484,-2.5999999046325684
383.96344893028072,-1.8999999761581421
384.97880137105676,2.5999999046325684
385.99395855867624,-7.3000001907348633
387.0089205312197,0.800000011920929
388.02368732675495,7.4000000953674316
389.03825898334981,8.8000001907348633
390.05263553905752,1.3999999761581421
391.06681703192226,-3.0999999046325684
392.08080349998454,-14.899999618530273
393.09459498126671,2.2999999523162842
394.10819151379292,-8.3000001907348633
395.12159313558004,-0.40000000596046448
396.13479988461768,11.300000190734863
397.14781179890815,4.0999999046325684
398.16062891643014,-3.5999999046325684
399.17325127516779,10.100000381469727
400.18567891308157,-9.1000003814697266
401.19791186813563,5.8000001907348633
402.20995017827954,6
403.22179388145014,-8.6999998092651367
404.23344301558427,6
405.24489761860423,2.2999999523162842
406.256157728425,2.7999999523162842
407.26722338295986,-1.5
408.27809462009827,6.8000001907348633
409.28877147773528,-2.9000000953674316
410.29925399374588,-4.9000000953674316
411.30954220601052,5.4000000953674316
412.31963615238783,-3.7999999523162842
413.3295358707328,3.4000000953674316
414.33924139889314,9.3000001907348633
415.348752774702,-11
416.35807003599439,1.1000000238418579
417.36719322058889,10.899999618530273
418.3761223662932,1.2999999523162842
419.38485751091685,6.8000001907348633
420.39339869224932,5.8000001907348633
421.4017459480765,11.699999809265137
422.4098993161806,8.1000003814697266
423.41785883432567,-7.6999998092651367
424.42562454027211,3
425.43319647177304,2.5999999046325684
426.44057466656886,-2.7000000476837158
427.44775916239269,2.7000000476837158
428.45474999697581,1.8999999761581421
429.46154720802588,-3.5
430.46815083326146,6.3000001907348633
431.474560910372,-2
432.48077747705611,20.299999237060547
433.48680057099773,-2.2999999523162842
434.4926302298627,0.5
435.49826649132046,0
436.50370939302593,11.199999809265137
437.50895897263217,-1.2999999523162842
438.5140152677759,0
439.51887831608292,0.30000001192092896
440.52354815518265,-8.1999998092651367
441.52802482268817,6.5999999046325684
442.532308356198,2.0999999046325684
443.53639879331604,-1.5
444.54029617162814,-11
445.54400052871461,-3.0999999046325684
446.54751190214483,2.2000000476837158
447.55083032947732,0.40000000596046448
448.553955848276,0.5
449.55688849607577,-5.0999999046325684
450.55962831042052,-3.0999999046325684
451.56217532883238,-5.0999999046325684
452.56452958883892,-14.800000190734863
453.56669112794589,1.7999999523162842
454.56865998365174,7.0999999046325684
455.57043619345859,-6.8000001907348633
456.57201979484853,-4.5
457.57341082529638,-6
458.57460932227514,2.5999999046325684
459.57561532323962,-0.60000002384185791
460.57642886564281,4.1999998092651367
461.57704998692861,2.9000000953674316
462.57747872453183,-3.5999999046325684
463.57771511587816,2.0999999046325684
464.57775919838059,5.8000001907348633
465.5776110094539,-7.1999998092651367
466.57727058649289,5.6999998092651367
467.57673796689414,8.6999998092651367
468.5760131880379,-16.700000762939453
469.57509628729895,1.6000000238418579
470.57398730204477,2.2999999523162842
471.57268626963196,-7.9000000953674316
472.57119322740982,2
473.56950821272039,-6.9000000953674316
474.56763126289479,-5.1999998092651367
475.56556241525323,6.3000001907348633
476.56330170711954,-8.3999996185302734
477.5608491757921,1.7999999523162842
478.55820485857475,-2.7999999523162842
479.55536879275314,-9.1000003814697266
480.55234101561109,-1.6000000238418579
481.54912156442151,1.2999999523162842
482.54571047644822,0.10000000149011612
483.54210778894412,0.5
484.5383135391603,4.3000001907348633
485.53432776433874,-12.100000381469727
486.53015050170507,-1.3999999761581421
487.52578178848125,-3.7000000476837158
488.521221661882,12.300000190734863
489.51647015911294,6
490.511527317376,-4.8000001907348633
491.50639317384957,3.2999999523162842
492.50106776571556,-9.8999996185302734
493.49555113015049,-1
494.48984330431631,0.10000000149011612
495.48394432536406,-11.300000190734863
496.477854230443,6.4000000953674316
497.47157305668588,-3.7000000476837158
498.46510084122747,-3.7999999523162842
499.45843762119148,-5.6999998092651367
500.45158343368166,-7.5
501.44453831580358,7.4000000953674316
502.43730230465735,5.5999999046325684
503.4298754373267,-1.2999999523162842
504.42225775089173,-10.199999809265137
505.41444928242527,-0.10000000149011612
506.40645006898194,0.60000002384185791
507.39826014762366,1.7999999523162842
508.38987955538869,2.2999999523162842
509.38130832932075,-9.1999998092651367
510.3725465064399,5.3000001907348633
511.36359412377169,4.4000000953674316
512.35445121832345,-4.0999999046325684
513.345117827108,-1.3999999761581421
514.33559398710713,1.7999999523162842
515.32587973531554,3.7999999523162842
516.31597510870961,-10.399999618530273
517.305880144253,-2
518.29559487891856,-5.5999999046325684
519.2851193496499,-5.1999998092651367
520.27445359339254,-8.1999998092651367
521.2635976470865,-0.89999997615814209
522.25255154765728,-9.8999996185302734
523.24131533202308,8.5
524.22988903709665,-14.100000381469727
525.21827269978348,1
526.20646635697267,-3.4000000953674316
527.19447004554968,-1.2999999523162842
528.18228380239634,-0.699999988079071
529.16990766437993,-8.1999998092651367
530.15734166836046,0.10000000149011612
531.14458585119428,-1.6000000238418579
532.13164024971957,-3.5
533.11850490077813,-8.5
534.1051798411936,15.300000190734863
535.09166510778778,1.8999999761581421
536.0779607373679,6.3000001907348633
537.06406676674123,-7.5999999046325684
538.04998323269865,4.4000000953674316
539.03571017202739,4.4000000953674316
540.02124762150379,-4.8000001907348633
541.00659561790053,-3.5
541.99175419797393,-0.699999988079071
542.97672339848032,-18.200000762939453
543.96150325615963,3.7999999523162842
544.94609380775364,0.89999997615814209
545.93049508998593,-10.5
546.91470713957824,5.0999999046325684
547.89872999324143,-7.3000001907348633
548.88256368767543,-4.8000001907348633
549.86620825957834,-2.2000000476837158
550.84966374563555,0.10000000149011612
551.83293018252334,3.2000000476837158
552.81600760691072,2.7000000476837158
553.79889605546123,3.5999999046325684
554.78159556482933,-4.4000000953674316
555.76410617165857,-3.5
556.74642791258339,-13.100000381469727
557.72856082423277,-1.7999999523162842
558.71050494323026,1.7000000476837158
559.692260306183,4
560.67382694969274,-3.7000000476837158
561.65520491036477,-8.1999998092651367
562.63639422477536,-4.1999998092651367
563.617394929508,7.5
564.59820706113169,9.1000003814697266
565.5788306562099,51
566.55926575129524,75.300003051757813
567.53951238293848,76.9000015258789
568.51957058766675,76.800003051757813
569.49944040201626,42.299999237060547
570.47912186250869,8.5
571.45861500565115,2.2000000476837158
572.43791986795441,-1.7000000476837158
573.417036485911,-5.0999999046325684
574.3959648960099,-0.699999988079071
575.37470513472908,-5.4000000953674316
576.35325723854476,-2.4000000953674316
577.3316212439131,16.299999237060547
578.309797187294,-1.7999999523162842
579.28778510513439,-2
580.26558503387241,4.9000000953674316
581.24319700993874,-5.9000000953674316
582.22062106975318,-4.8000001907348633
583.1978572497319,13.5
584.17490558627833,-6.9000000953674316
585.15176611579591,7.3000001907348633
586.12843887466624,-7.3000001907348633
587.1049238992764,-10.600000381469727
588.08122122599343,-0.699999988079071
589.05733089119167,1.2000000476837158
590.03325293122,-4.5
591.00898738242722,-3.2000000476837158
591.98453428115681,1.3999999761581421
592.95989366373578,11.300000190734863
593.93506556649481,-13.899999618530273
594.91005002574457,3.9000000953674316
595.88484707779207,-1.8999999761581421
596.85945675894072,-10.100000381469727
597.83387910547935,-4.6999998092651367
598.808114153695,8.3999996185302734
599.78216193985281,6.5
600.7560225002253,-3
601.729695871074,-0.10000000149011612
602.70318208864228,-8.5
603.67648118917714,3.7000000476837158
604.64959320891285,-3.4000000953674316
605.62251818407458,-5.0999999046325684
606.59525615087659,1.1000000238418579
607.56780714553315,-12.100000381469727
608.54017120424214,0.60000002384185791
609.51234836320145,-13.899999618530273
610.48433865859079,-4.1999998092651367
611.45614212658984,-3.7000000476837158
612.42775880336558,4.4000000953674316
613.39918872508315,8
614.37043192788951,4.1999998092651367
615.34148844793526,16.200000762939453
616.31235832134917,4.6999998092651367
617.28304158426727,6
618.253538272802,-6.3000001907348633
619.2238484230711,1.8999999761581421
620.19397207117981,-11.199999809265137
621.16390925321321,7.9000000953674316
622.13366000527276,-3.0999999046325684
623.103224363429,-8.3999996185302734
624.07260236375441,5.5999999046325684
625.04179404231763,0.10000000149011612
626.01079943516561,-2.9000000953674316
626.97961857835253,2.5999999046325684
627.94825150791621,-3.0999999046325684
628.91669825988356,-7.5
629.8849588702833,3.5999999046325684
630.85303337512414,-10.699999809265137
631.8209218104148,-1.2000000476837158
632.7886242121549,8.1999998092651367
633.75614061633678,-0.40000000596046448
634.72347105893823,-2.4000000953674316
635.69061557593523,1.7000000476837158
636.65757420329646,-5.3000001907348633
637.6243469769779,2.7999999523162842
638.59093393293,1.3999999761581421
639.55733510709615,-2.5999999046325684
640.5235505354085,-4.3000001907348633
641.48958025379216,-11.800000190734863
642.45542429816669,-4.4000000953674316
643.4210827044426,-14.699999809265137
644.38655550851945,1.1000000238418579
645.351842746295,-5.5
646.31694445364883,-0.60000002384185791
647.28186066646231,3.9000000953674316
648.24659142060591,-0.800000011920929
649.21113675193737,-1.1000000238418579
650.17549669631444,3.5999999046325684
651.13967128958211,-0.60000002384185791
652.10366056757266,-0.800000011920929
653.067464566122,-11
654.03108332104784,-2.4000000953674316
654.99451686816428,-1.7999999523162842
655.95776524327266,-0.40000000596046448
656.920828482178,-4.8000001907348633
657.88370662066518,-0.30000001192092896
658.84639969451382,2.0999999046325684
659.80890773950159,-5
660.77123079139164,-1.6000000238418579
661.733368885938,-6.0999999046325684
662.69532205889118,-14.300000190734863
663.65709034599786,5.5
664.61867378298484,-9
665.58007240558072,10.199999809265137
666.54128624949954,-13.600000381469727
667.50231535045532,1.6000000238418579
668.46315974414392,0.800000011920929
669.42381946626119,-2.2000000476837158
670.38429455249025,13.300000190734863
671.34458503851238,-4
672.30469095999615,-6.5999999046325684
673.2646123525974,-2.5999999046325684
674.224349251972,6.0999999046325684
675.18390169377017,-5.5
676.14326971362243,6.5
677.10245334716274,-3
678.0614526300069,-3.2000000476837158
679.02026759777618,2.9000000953674316
679.97889828607,-3.9000000953674316
680.93734473048789,-2.2999999523162842
681.89560696662011,5
682.85368503004611,-2.5999999046325684
683.81157895634169,3.2000000476837158
684.76928878106992,2.4000000953674316
