-777.87311982425126,-2.7999999523162842
-776.63374739947358,-0.800000011920929
-775.39461482227671,-0.60000002384185791
-774.15572204389719,6.1999998092651367
-772.91706901559337,-3
-771.67865568863454,8.1999998092651367
-770.44048201429,1.7999999523162842
-769.20254794384346,14.399999618530273
-767.96485342860433,-1.6000000238418579
-766.7273984198855,10.100000381469727
-765.49018286900719,3
-764.25320672730777,1.1000000238418579
-763.01646994613657,5.5999999046325684
-761.77997247685744,10.600000381469727
-760.5437142708488,-3.0999999046325684
-759.307695279489,1.8999999761581421
-758.07191545417118,-0.10000000149011612
-756.83637474631723,9.1000003814697266
-755.601073107342,7
-754.36601048868215,-2.9000000953674316
-753.13118684178153,2.4000000953674316
-751.89660211810587,0.699999988079071
-750.66225626912092,3.2000000476837158
-749.42814924630693,2.2000000476837158
-748.19428100116238,-2.2999999523162842
-746.960651485193,10.800000190734863
-745.72726064991912,5
-744.49410844686827,-1.2000000476837158
-743.26119482758622,0.20000000298023224
-742.02851974362966,3
-740.79608314656616,2
-739.5638849879706,8.8999996185302734
-738.331925219436,-10.300000190734863
-737.10020379257367,0.699999988079071
-735.86872065898388,6
-734.63747577031063,1
-733.406469078187,1.6000000238418579
-732.17570053426061,0.800000011920929
-730.94517009020092,4.5
-729.71487769768464,-2.9000000953674316
-728.48482330838851,13.800000190734863
-727.25500687402564,-3.0999999046325684
-726.02542834630549,1.8999999761581421
-724.79608767694481,9.3999996185302734
-723.56698481768581,-4.6999998092651367
-722.33811972027434,-5.6999998092651367
-721.10949233647079,5.8000001907348633
-719.88110261805014,6.0999999046325684
-718.652950516791,-3.0999999046325684
-717.42503598449366,3.7000000476837158
-716.19735897296232,-0.40000000596046448
-714.96991943401918,4.1999998092651367
-713.74271731949739,-0.10000000149011612
-712.515752581241,5.5
-711.28902517110146,3.7000000476837158
-710.06253504095184,3.9000000953674316
-708.83628214267264,-3.4000000953674316
-707.610266428148,1.7999999523162842
-706.384487849291,2.5
-705.15894635801124,0.89999997615814209
-703.93364190623652,5.3000001907348633
-702.70857444590911,-4.0999999046325684
-701.48374392898586,-3.7999999523162842
-700.25915030741635,4.9000000953674316
-699.03479353318289,-3.7999999523162842
-697.81067355827872,1.1000000238418579
-696.58679033470071,-7.1999998092651367
-695.36314381444936,4
-694.1397339495652,-4.1999998092651367
-692.91656069207056,3.7000000476837158
-691.69362399401689,-1.6000000238418579
-690.47092380745926,-4.9000000953674316
-689.24846008447821,7.6999998092651367
-688.02623277714338,3.7000000476837158
-686.80424183756077,-0.30000001192092896
-685.58248721782911,-0.10000000149011612
-684.360968870069,0.30000001192092896
-683.13968674641546,-14.300000190734863
-681.91864079900733,6.6999998092651367
-680.69783097999425,1.7999999523162842
-679.4772572415477,-1.2000000476837158
-678.25691953584283,0.20000000298023224
-677.0368178150693,5.4000000953674316
-675.81695203143136,2.4000000953674316
-674.59732213714051,8.6000003814697266
-673.37792808442282,-6.9000000953674316
-672.15876982551163,-0.40000000596046448
-670.9398473126621,11.800000190734863
-669.72116049812939,-5.4000000953674316
-668.50270933419051,4.1999998092651367
-667.28449377312245,5
-666.0665137672313,-6.0999999046325684
-664.84876926881952,-3.5999999046325684
-663.63126023020413,1.3999999761581421
-662.413986603724,0.30000001192092896
-661.19694834172151,7
-659.9801453965465,-1
-658.76357772057054,-7.1999998092651367
-657.54724526617247,0.20000000298023224
-656.33114798573843,-1.1000000238418579
-655.11528583168,2.5999999046325684
-653.89965875640155,2.2000000476837158
-652.68426671233283,5.5
-651.46910965191455,-5
-650.25418752759469,-10.100000381469727
-649.03950029183216,3.9000000953674316
-647.825047897104,2.7999999523162842
-646.61083029589463,-0.30000001192092896
-645.39684744069928,-8.3999996185302734
-644.18309928402778,1.5
-642.96958577839359,-0.60000002384185791
-641.75630687633929,0
-640.54326253040745,4.3000001907348633
-639.33045269314425,3
-638.117877317125,-3.7999999523162842
-636.90553635492142,-2.0999999046325684
-635.69342975913059,3.9000000953674316
-634.481557482357,-6.8000001907348633
-633.26991947720853,0
-632.05851569631523,5.5999999046325684
-630.84734609231418,8.5
-629.63641061784983,-1.7999999523162842
-628.4257092255848,3.4000000953674316
-627.21524186819988,7.4000000953674316
-626.00500849836862,-4.5
-624.79500906879366,-8.8000001907348633
-623.58524353217763,-15.100000381469727
-622.37571184124863,8.8999996185302734
-621.1664139487275,4.6999998092651367
-619.95734980736415,-3.7999999523162842
-618.74851936991581,-3.0999999046325684
-617.539922589136,-5.5999999046325684
-616.33155941781479,3.5
-615.12342980873473,6.1999998092651367
-613.91553371470036,-7.3000001907348633
-612.70787108852346,1.2000000476837158
-611.50044188302672,2.4000000953674316
-610.29324605104739,-2.0999999046325684
-609.08628354543725,0.699999988079071
-607.87955431905175,-3.5
-606.67305832475722,-1.6000000238418579
-605.46679551544912,-2.9000000953674316
-604.26076584400835,1.3999999761581421
-603.05496926335218,2.9000000953674316
-601.849405726387,-8.3000001907348633
-600.64407518604821,5.9000000953674316
-599.438977595275,-5.5
-598.234112907021,2.0999999046325684
-597.02948107425073,5.0999999046325684
-595.82508204993974,4
-594.62091578707441,-11.600000381469727
-593.41698223864842,-1.8999999761581421
-592.21328135768454,1
-591.009813097191,8.3000001907348633
-589.80657741020877,2.2000000476837158
-588.60357424978247,-4.9000000953674316
-587.4008035689676,4.4000000953674316
-586.19826532083425,-10.600000381469727
-584.99595945845977,3.7999999523162842
-583.793885934936,-7.3000001907348633
-582.5920447033659,-6
-581.39043571686307,0.40000000596046448
-580.18905892855764,-0.60000002384185791
-578.98791429158518,2.2999999523162842
-577.78700175909034,-6.6999998092651367
-576.58632128423778,-4.4000000953674316
-575.38587282020308,0.5
-574.1856563201618,-0.5
-572.98567173731681,7.5
-571.78591902487278,1.8999999761581421
-570.58639813603986,-2
-569.38710902406274,-10.199999809265137
-568.18805164217156,-10.699999809265137
-566.98922594362557,-7.1999998092651367
-565.790631881684,-4.6999998092651367
-564.59226940962253,-2.0999999046325684
-563.39413848073127,1.7000000476837158
-562.19623904831133,-14
-560.99857106566742,-2.5
-559.80113448612792,5
-558.60392926301938,-5.3000001907348633
-557.40695534968654,-6.4000000953674316
-556.21021269949415,-4.4000000953674316
-555.0137012658015,-5.5999999046325684
-553.81742100199153,5.4000000953674316
-552.62137186145628,-6.5999999046325684
-551.4255537975896,-5
-550.22996676381626,-0.60000002384185791
-549.03461071355377,1.7999999523162842
-547.8394856002451,0.60000002384185791
-546.64459137733138,0.30000001192092896
-545.449927998272,-9.5
-544.25549541654073,8.5
-543.06129358562066,-4.0999999046325684
-541.86732245900566,-14.699999809265137
-540.67358199019873,-2.9000000953674316
-539.48007213271376,1.2000000476837158
-538.28679284007922,0.40000000596046448
-537.09374406584539,-8
-535.900925763548,6.0999999046325684
-534.70833788675736,1.7000000476837158
-533.51598038904558,11
-532.32385322399932,-4.1999998092651367
-531.13195634520889,0.5
-529.94028970629006,-6.5999999046325684
-528.74885326085314,-3.4000000953674316
-527.55764696253573,-3.2999999523162842
-526.36667076497724,-6.9000000953674316
-525.17592462183165,5.8000001907348633
-523.985408486762,-11.300000190734863
-522.79512231344415,6.4000000953674316
-521.60506605556839,-4.5
-520.41523966682871,-2.5
-519.22564310093912,3
-518.0362763116209,-4.5
-516.84713925260257,-2.7999999523162842
-515.65823187763453,-7.6999998092651367
-514.46955414046715,3.5
-513.28110599486718,-12.600000381469727
-512.09288739461954,-4.1999998092651367
-510.90489829350736,-3.4000000953674316
-509.71713864533194,-7.6999998092651367
-508.52960840390369,-5
-507.3423075230512,-2.9000000953674316
-506.15523595660488,-6
-504.96839365841697,-7.6999998092651367
-503.78178058233607,-3
-502.59539668223624,-11
-501.4092419119952,-5
-500.223316225507,-1.2999999523162842
-499.0376195766712,-2.0999999046325684
-497.85215191940188,-6.9000000953674316
-496.666913207624,6.3000001907348633
-495.48190339527719,2.5999999046325684
-494.29712243630638,-14.699999809265137
-493.11257028467116,4.1999998092651367
-491.928246894342,-0.5
-490.7441522193003,-12.800000190734863
-489.56028621353471,-7.3000001907348633
-488.37664883105754,-2.9000000953674316
-487.19324002587746,-3.5
-486.01005975202315,1.2000000476837158
-484.8271079635324,-9.8999996185302734
-483.6443846144557,-8.3000001907348633
-482.46188965885085,-3.5999999046325684
-481.27962305079018,4.5999999046325684
-480.09758474435512,-8.3999996185302734
-478.91577469364165,-15.800000190734863
-477.73419285275304,-0.800000011920929
-476.55283917580709,-12.800000190734863
-475.37171361693436,1.8999999761581421
-474.19081613026719,-1.2000000476837158
-473.010146669958,-6.8000001907348633
-471.82970519017181,1.7999999523162842
-470.64949164507379,1
-469.46950598885633,-7.4000000953674316
-468.28974817570452,-10
-467.1102181598344,-6.1999998092651367
-465.93091589545475,-7.6999998092651367
-464.75184133679977,-2
-463.57299443810552,-1.1000000238418579
-462.39437515362624,-5.5
-461.2159834376198,-10
-460.03781924436043,-5.1999998092651367
-458.85988252813513,-10.399999618530273
-457.68217324323632,-3.5
-456.50469134396917,-17.600000381469727
-455.32743678465886,-16.600000381469727
-454.15040951962692,-5.5999999046325684
-452.97360950321672,-11.800000190734863
-451.79703668977709,-1.2999999523162842
-450.62069103367321,-6.8000001907348633
-449.4445724892721,-3.5
-448.26868101096989,-2.5
-447.09301655315357,1.3999999761581421
-445.9175790702302,0.89999997615814209
-444.74236851661954,-4.4000000953674316
-443.56738484675407,-6.5
-442.39262801506811,-12.199999809265137
-441.21809797601236,-4.3000001907348633
-440.0437946840575,-8
-438.86971809366878,-4.6999998092651367
-437.69586815933872,-4.8000001907348633
-436.52224483555256,-13.100000381469727
-435.34884807682647,-1.2999999523162842
-434.17567783767481,-4.6999998092651367
-433.00273407262466,-16.200000762939453
-431.83001673621948,-5.9000000953674316
-430.65752578300453,2.2999999523162842
-429.4852611675542,-2.0999999046325684
-428.31322284443013,-12.899999618530273
-427.14141076821943,-4.5
-425.96982489351649,-2.0999999046325684
-424.79846517493388,-2.7000000476837158
-423.62733156708055,-2.2000000476837158
-422.45642402459453,-5.6999998092651367
-421.28574250211022,-0.20000000298023224
-420.1152869542766,-2.4000000953674316
-418.94505733575534,-16.899999618530273
-417.77505360122632,-2.9000000953674316
-416.60527570536397,-2.0999999046325684
-415.43572360287,-6.5999999046325684
-414.26639724844608,-5.9000000953674316
-413.09729659681216,-3
-411.92842160268992,-0.60000002384185791
-410.7597722208302,-14.800000190734863
-409.59134840596926,-7.6999998092651367
-408.42315011287792,-5.1999998092651367
-407.2551772963252,-6.6999998092651367
-406.087429911091,1.2999999523162842
-404.9199079119735,0.5
-403.75261125377619,2.2999999523162842
-402.58553989131542,-9.3999996185302734
-401.41869377941293,-6.9000000953674316
-400.25207287291232,-3.7000000476837158
-399.08567712666627,-7.0999999046325684
-397.919506495522,-2
-396.75356093436312,-5
-395.58784039806596,-4.0999999046325684
-394.42234484151959,-14.300000190734863
-393.25707421963307,-4.5999999046325684
-392.09202848732275,-11.600000381469727
-390.92720759950862,-0.800000011920929
-389.76261151112521,-8.1999998092651367
-388.59824017713072,-11
-387.43409355247422,-10
-386.27017159212846,-8.1999998092651367
-385.10647425107527,-6.3000001907348633
-383.94300148430193,-6
-382.77975324681393,-16.100000381469727
-381.616729493624,-5
-380.453930179754,-7.3000001907348633
-379.29135526024038,-10.5
-378.129004690134,-6.3000001907348633
-376.96687842448227,-8
-375.80497641835791,-7.9000000953674316
-374.64329862683917,-10
-373.4818450050152,-15.899999618530273
-372.32061550798426,-8.3000001907348633
-371.15961009086277,-4.8000001907348633
-369.99882870877082,-15.800000190734863
-368.83827131683756,-0.5
-367.677937870214,-0.60000002384185791
-366.51782832404751,-3.4000000953674316
-365.3579426335109,-5.1999998092651367
-364.19828075377518,-10
-363.03884264003136,-9.3999996185302734
-361.87962824747046,-7.3000001907348633
-360.7206375313126,-6.5999999046325684
-359.56187044677063,-4.6999998092651367
-358.403326949081,-4.1999998092651367
-357.24500699348027,10.100000381469727
-356.08691053522307,-5.4000000953674316
-354.92903752956954,-21
-353.771387931798,-6.5999999046325684
-352.61396169719228,-14.199999809265137
-351.45675878105067,-18.799999237060547
-350.29977913867333,-11.399999618530273
-349.14302272538407,0.60000002384185791
-347.98648949651215,-7.5
-346.83017940739046,1.8999999761581421
-345.67409241337191,3.2000000476837158
-344.51822846982031,-8.1000003814697266
-343.36258753210313,1.1000000238418579
-342.20716955560965,-6.5
-341.05197449572188,1.5
-339.89700230785638,-9.1999998092651367
-338.74225294741518,-0.800000011920929
-337.58772636983667,-5
-336.43342253054652,-8.6000003814697266
-335.27934138499768,-8.3999996185302734
-334.12548288865037,-0.5
-332.97184699696481,-8.3000001907348633
-331.81843366542853,-14.5
-330.66524284953266,-7.1999998092651367
-329.51227450476654,-2.5999999046325684
-328.35952858665769,-9.6999998092651367
-327.20700505071909,-14.899999618530273
-326.05470385248555,-6.6999998092651367
-324.90262494750459,-14.600000381469727
-323.75076829132558,-0.40000000596046448
-322.59913383951789,11.399999618530273
-321.44772154765633,-7.4000000953674316
-320.29653137132846,-12.399999618530273
-319.14556326613092,-4.5
-317.99481718767311,-9.1000003814697266
-316.84429309157531,-11.300000190734863
-315.69399093346874,-16.299999237060547
-314.54391066899007,-5.5
-313.39405225379596,-14
-312.24441564354129,2.7999999523162842
-311.09500079390455,-18.200000762939453
-309.94580766056788,-6.9000000953674316
-308.79683619922253,-10
-307.64808636558337,-0.5
-306.49955811535619,-8.1999998092651367
-305.35125140426862,-14
-304.203166188061,-10
-303.05530242247733,-5.3000001907348633
-301.90766006327794,-17.100000381469727
-300.76023906623413,9.1999998092651367
-299.61303938712081,-11.300000190734863
-298.46606098173288,5
-297.31930380586527,-7.5999999046325684
-296.17276781533837,-10.800000190734863
-295.02645296596893,3.2000000476837158
-293.88035921359551,-9.6999998092651367
-292.73448651404942,8.1999998092651367
-291.58883482319834,-1.2999999523162842
-290.44340409690449,-13.199999809265137
-289.29819429103554,-5.4000000953674316
-288.15320536148647,2.9000000953674316
-287.0084372641486,-11.699999809265137
-285.86388995493689,2.9000000953674316
-284.7195633897627,-5.4000000953674316
-283.57545752455371,7.1999998092651367
-282.431572315254,-5.0999999046325684
-281.28790771781496,-0.800000011920929
-280.1444636881879,-1.5
-279.00124018235692,5.9000000953674316
-277.8582371562934,-5.8000001907348633
-276.71545456599597,-12
-275.57289236746692,10.800000190734863
-274.43055051671945,1.7999999523162842
-273.28842896977221,-10.300000190734863
-272.14652768267115,-2.9000000953674316
-271.00484661145128,2.7999999523162842
-269.86338571217493,-3.4000000953674316
-268.72214494090622,15.399999618530273
-267.581124253722,-10.199999809265137
-266.44032360671372,-5.8000001907348633
-265.29974295597458,-3.9000000953674316
-264.159382257616,-3.5
-263.01924146776037,4.1999998092651367
-261.87932054252815,-5.0999999046325684
-260.73961943807444,-5.3000001907348633
-259.60013811053796,10.800000190734863
-258.46087651608468,3.5
-257.32183461088971,8.8999996185302734
-256.18301235113358,7.1999998092651367
-255.04440969300595,21.399999618530273
-253.90602659271462,13.800000190734863
-252.76786300647473,8.3999996185302734
-251.62991889051045,11.300000190734863
-250.49219420105146,14.100000381469727
-249.35468889435288,8.1999998092651367
-248.217402926668,4.8000001907348633
-247.08033625425924,19.700000762939453
-245.94348883341445,2.2999999523162842
-244.80686062040877,-5.3000001907348633
-243.67045157154826,8.5
-242.53426164314442,14.199999809265137
-241.39829079150877,3.4000000953674316
-240.26253897297829,4.5999999046325684
-239.12700614388814,10.600000381469727
-237.99169226059348,13.300000190734863
-236.85659727945676,11.5
-235.72172115684771,22.299999237060547
-234.58706384914331,20.100000381469727
-233.4526253127442,15.199999809265137
-232.31840550405468,8.3999996185302734
-231.18440437947902,16.100000381469727
-230.05062189545242,13.699999809265137
-228.91705800840282,28.799999237060547
-227.78371267477996,24.200000762939453
-226.65058585103725,21.5
-225.51767749363898,7.6999998092651367
-224.38498755906403,20.899999618530273
-223.2525160037967,40.900001525878906
-222.1202627843395,31.200000762939453
-220.98822785719858,37.299999237060547
-219.85641117888918,39.099998474121094
-218.7248127059429,40.200000762939453
-217.59343239489681,42.299999237060547
-216.46227020230072,34.400001525878906
-215.3313260847226,37.700000762939453
-214.20059999872137,35.900001525878906
-213.07009190087956,43.099998474121094
-211.9398017477979,48.900001525878906
-210.80972949606621,37.5
-209.67987510230523,32.5
-208.5502385231357,45.299999237060547
-207.42081971518564,40.700000762939453
-206.29161863510308,29.799999237060547
-205.16263523954149,19.5
-204.03386948516163,39.599998474121094
-202.90532132864428,25
-201.77699072666474,43.900001525878906
-200.64887763592742,21.5
-199.52098201313311,32
-198.39330381500076,24.5
-197.26584299825117,21.899999618530273
-196.13859951962695,26.899999618530273
-195.01157333587253,17.700000762939453
-193.88476440374143,32
-192.75817268001083,22.200000762939453
-191.63179812144881,24.899999618530273
-190.50564068485255,28.799999237060547
-189.3797003270156,22.799999237060547
-188.25397700474423,26.700000762939453
-187.12847067486291,23.799999237060547
-186.00318129420339,26.200000762939453
-184.87810881960104,12.300000190734863
-183.75325320790944,41.5
-182.62861441598398,46.400001525878906
-181.50419240070187,31.299999237060547
-180.37998711894033,51.599998474121094
-179.25599852759296,41.599998474121094
-178.13222658356062,48.900001525878906
-177.00867124376236,52.700000762939453
-175.88533246510815,75.199996948242188
-174.76221020454068,94.300003051757813
-173.63930441900084,115.09999847412109
-172.51661506544224,110.90000152587891
-171.39414210082759,142.80000305175781
-170.27188548212871,151.69999694824219
-169.14984516633558,186.5
-168.02802111043638,176.5
-166.90641327144112,186.30000305175781
-165.78502160636344,195.30000305175781
-164.66384607223154,194.19999694824219
-163.54288662607541,185.80000305175781
-162.4221432249451,196.30000305175781
-161.30161582589426,168.80000305175781
-160.18130438598928,156.80000305175781
-159.06120886230929,150.10000610351563
-157.94132921194432,146.30000305175781
-156.82166539198624,135.89999389648438
-155.70221735953965,140.39999389648438
-154.58298507173095,136
-153.46396848568111,141.39999389648438
-152.34516755853474,145.5
-151.22658224743282,136.89999389648438
-150.10821250953813,154.60000610351563
-148.99005830202077,150.80000305175781
-147.87211958205626,141.19999694824219
-146.75439630683832,168.60000610351563
-145.63688843355885,167.5
-144.51959591943705,171.69999694824219
-143.40251872168847,195.5
-142.28565679753956,177.30000305175781
-141.16901010423499,194.30000305175781
-140.05257859902849,221.19999694824219
-138.93636223917383,213.5
-137.82036098194294,216
-136.70457478462595,256.70001220703125
-135.58900360449843,246.10000610351563
-134.47364739887416,270.5
-133.35850612506329,277
-132.24357974038321,301.5
-131.12886820217136,333.20001220703125
-130.01437146776334,335
-128.90008949451476,352.89999389648438
-127.78602223979033,356.89999389648438
-126.67216966095839,383.29998779296875
-125.55853171540366,385.60000610351563
-124.44510836051813,419.60000610351563
-123.33189955371017,432.79998779296875
-122.2189052523845,449
-121.10612541397313,445.10000610351563
-119.9935599959008,484.29998779296875
-118.88120895561769,481.79998779296875
-117.76907225057403,487.79998779296875
-116.65714983823818,510
-115.54544167607855,492.5
-114.43394772158354,536.5
-113.32266793224335,509.29998779296875
-112.21160226556458,535.29998779296875
-111.10075067906291,559
-109.99011313026131,567.29998779296875
-108.87968957669545,572.29998779296875
-107.76947997590833,590.0999755859375
-106.65948428545926,620
-105.54970246290759,618.5
-104.44013446582903,651.20001220703125
-103.33078025181567,660.9000244140625
-102.22163977845048,673
-101.11271300335284,692.5999755859375
-100.00399988412755,694.5
-98.8955003784049,748.9000244140625
-97.787214443818812,791.20001220703125
-96.679142038015925,910.70001220703125
-95.571283118651991,996.29998779296875
-94.46363764339003,1043.699951171875
-93.356205569909434,1014.2000122070313
-92.248986855895055,975.4000244140625
-91.141981459042654,858.5999755859375
-90.035189337055272,850.5
-88.928610447654137,828.5999755859375
-87.8222447485623,841.20001220703125
-86.716092197515536,848.70001220703125
-85.610152752264185,883.0999755859375
-84.504426370558576,862.9000244140625
-83.3989130101636,875.70001220703125
-82.29361262886232,898.0999755859375
-81.188525184439641,935
-80.083650634691367,1038.800048828125
-78.978988937416943,1165.5999755859375
-77.8745400504431,1356.5
-76.7703039315893,1576.300048828125
-75.666280538693172,1746.199951171875
-74.56246982959965,1757.9000244140625
-73.45887176217002,1714.800048828125
-72.355486294265575,1546.199951171875
-71.2523133837658,1336.0999755859375
-70.149352988557439,1174.9000244140625
-69.046605066534539,1113
-67.944069575602043,1030.199951171875
-66.84174647367945,999.20001220703125
-65.739635718693535,1051.199951171875
-64.63773726857471,1053.699951171875
-63.5360510812734,1092.9000244140625
-62.434577114750937,1120.199951171875
-61.3333153269632,1206.9000244140625
-60.232265675895178,1385.699951171875
-59.131428119522752,1677.5999755859375
-58.030802615854554,2243.10009765625
-56.930389122886481,2775.699951171875
-55.830187598636257,3167.10009765625
-54.730198001132521,3180.39990234375
-53.630420288413006,2813.10009765625
-52.530854418515446,2370.199951171875
-51.431500349504859,2051.199951171875
-50.332358039440805,2015.5
-49.233427446402857,2198
-48.134708528470583,2697.300048828125
-47.036201243741743,3401.60009765625
-45.937905550323194,4590.7001953125
-44.839821406334522,6447.7001953125
-43.74194876988804,8429.2001953125
-42.64428759913244,9757.2998046875
-41.5468378522055,10267.400390625
-40.449599487265004,9773.2001953125
-39.352572462472381,9032.2001953125
-38.255756736005424,8238.2001953125
-37.159152266047386,7075.60009765625
-36.062759010790614,5283.7998046875
-34.966576928443828,3863.300048828125
-33.8706059772212,3702
-32.774846115338732,5413.2001953125
-31.679297301039696,10000
-30.583959492563736,13645.900390625
-29.488832648166863,14444.7998046875
-28.393916726110547,12841.599609375
-27.299211684672628,7510.2001953125
-26.204717482129126,4460.39990234375
-25.110434076774254,3449.60009765625
-24.016361426916774,3187.699951171875
-22.922499490865448,3079.199951171875
-21.828848226945411,2931.5
-20.735407593489072,2734.800048828125
-19.642177548834297,2254.39990234375
-18.549158051340783,2085.800048828125
-17.456349059368222,2050.89990234375
-16.363750531281767,2077.199951171875
-15.271362425470215,2115.5
-14.179184700326005,2134.699951171875
-13.087217314247027,2220.5
-11.995460225642091,2264.800048828125
-10.903913392940012,2331.800048828125
-9.8125767745696066,2404.800048828125
-8.7214503289651475,2484.10009765625
-7.6305340145827358,2564
-6.5398277898821107,2565.800048828125
-5.4493316133357439,2181.699951171875
-4.3590454434179264,1596.300048828125
-3.26896923861932,930.9000244140625
-2.1791029574433196,823.5
-1.0894465583987767,678.9000244140625
-3.637978807091713E-12,742.79998779296875
1.0892367592168739,838.4000244140625
2.1782637607157085,870.4000244140625
3.2670810459494533,1479.199951171875
4.3556886563619628,2231
5.4440866333861777,2603
6.5322750184368488,2670.300048828125
7.6202538529305457,2584.5
8.7080231782692863,2549.10009765625
9.7955830358478124,2465.10009765625
10.882933467048133,2435.300048828125
11.970074513241343,2388.10009765625
13.0570062157949,2358.199951171875
14.143728616063527,2326.60009765625
15.230241755389216,2292
16.316545675103043,2304.39990234375
17.402640416532449,2285.39990234375
18.488526020995778,2472.199951171875
19.574202529791364,2915
20.659669984221182,3252.39990234375
21.744928425567196,3516.800048828125
22.82997789510955,3674.199951171875
23.914818434106564,3784.5
24.99945008382565,4629.2998046875
26.083872885503297,7218.10009765625
27.168086880381452,12898.2998046875
28.252092109691148,16758.80078125
29.33588861464159,17087.400390625
30.419476436449258,14271
31.502855616305169,8075.10009765625
32.586026195402155,4886.2001953125
33.668988214920319,4476.5
34.751741716028846,5680.7998046875
35.834286739884192,7725.7998046875
36.916623327637353,9647.400390625
37.998751520428414,11065.2001953125
39.080671359392,11892.400390625
40.162382885640909,12736.900390625
41.243886140291579,12842.599609375
42.325181164447713,12031.7998046875
43.406267999200281,10065
44.4871466856257,7107.2998046875
45.5678172648004,5206
46.648279777786229,4195.7001953125
47.72853426563961,3371.300048828125
48.8085807694024,2847
49.888419330107354,2699.199951171875
50.968049988779967,2968.699951171875
52.047472786436629,3502.300048828125
53.126687764075541,4113
54.205694962698544,4536
55.284494423289289,4385.39990234375
56.363086186827786,3832.800048828125
57.44147029427404,2974.300048828125
58.519646786589874,2341.10009765625
59.597615704718919,1947.800048828125
60.67537708960117,1739.800048828125
61.752930982163889,1680.9000244140625
62.83027742332888,1636.800048828125
63.90741645399612,1582
64.984348115074681,1578.199951171875
66.061072447448169,1627.0999755859375
67.13758949199655,1653.4000244140625
68.213899289597975,1714.5999755859375
69.29000188109967,1896.0999755859375
70.36589730736705,2154.89990234375
71.441585609234608,2472.699951171875
72.517066827535018,2725.5
73.592341003088222,2878.699951171875
74.667408176715981,2876.699951171875
75.742268389207311,2575.60009765625
76.816921681369422,2350.300048828125
77.891368093980418,2042.800048828125
78.965607667816585,1854.9000244140625
80.039640443639655,1670
81.113466462209544,1592.9000244140625
82.187085764271615,1490.699951171875
83.260498390560315,1567.300048828125
84.333704381804637,1558.300048828125
85.40670377871902,1585.5
86.479496622014267,1556.0999755859375
87.552082952388446,1532.9000244140625
88.624462810528712,1527.199951171875
89.6966362371113,1521
90.76860327281247,1696.300048828125
91.840363958286616,1883.5
92.911918334189977,1994.199951171875
93.983266441158776,1985.9000244140625
95.054408319829236,1848.9000244140625
96.12534401081939,1715.5999755859375
97.19607355474,1486.5999755859375
98.2665969922,1429.4000244140625
99.336914363786491,1404.699951171875
100.40702571009024,1350.9000244140625
101.47693107168197,1341.5999755859375
102.54663048912334,1306.5999755859375
103.61612400297781,1301
104.68541165378701,1273
105.75449348208713,1269.5999755859375
106.82336952840706,1207.699951171875
107.89203983326297,1180.5
108.96050443715831,1143.0999755859375
110.02876338060378,1157.4000244140625
111.09681670407736,1109.300048828125
112.16466444806247,1105.4000244140625
113.23230665302981,1096.199951171875
114.2997433594428,1072.5
115.36697460774849,1074.0999755859375
116.43400043838665,1068.4000244140625
117.50082089179705,1036.699951171875
118.56743600839945,1027
119.63384582860272,1011.0999755859375
120.70005039281386,978.0999755859375
121.76604974143083,997.4000244140625
122.83184391483519,969.4000244140625
123.89743295340486,939.5999755859375
124.96281689750322,908.29998779296875
126.02799578748636,885.0999755859375
127.09296966370857,843.20001220703125
128.15773856649867,790.9000244140625
129.22230253619455,769.9000244140625
130.28666161311048,768.9000244140625
131.35081583755345,715.0999755859375
132.414765249825,682.20001220703125
133.47850989022481,644.79998779296875
134.54204979901988,638.29998779296875
135.60538501649535,615.5
136.66851558290364,583
137.73144153850444,560.4000244140625
138.79416292353926,544.4000244140625
139.85667977824414,526.29998779296875
140.91899214284422,510.5
141.9811000575537,494.20001220703125
143.0430035625759,489.89999389648438
144.10470269811231,455.29998779296875
145.16619750435348,448.39999389648438
146.22748802146998,437.60000610351563
147.28857428963602,413.60000610351563
148.3494563490076,429.10000610351563
149.41013423973891,397.39999389648438
150.47060800196778,406.29998779296875
151.53087767582292,400.20001220703125
152.59094330143125,389.39999389648438
153.65080491890512,401.10000610351563
154.71046256834779,405
155.76991628984433,411
156.82916612349436,408.20001220703125
157.88821210936294,452
158.94705428751695,447.39999389648438
160.00569269801963,496.29998779296875
161.06412738090876,553.20001220703125
162.12235837622939,565.5
163.18038572400837,585.29998779296875
164.23820946425803,615.70001220703125
165.29582963700341,606.20001220703125
166.35324628222952,570.5999755859375
167.41045943993777,561.0999755859375
168.4674691501059,476.79998779296875
169.52427545270439,484.10000610351563
170.58087838770371,417.70001220703125
171.63727799505432,396.39999389648438
172.6934743146976,352.20001220703125
173.74946738657491,318.39999389648438
174.80525725060761,276.20001220703125
175.86084394671525,234.69999694824219
176.91622751480463,213.80000305175781
177.97140799477529,208
179.02638542651403,175.89999389648438
180.08115984989854,163.19999694824219
181.13573130480836,165.60000610351563
182.1900998310939,141.69999694824219
183.24426546861469,138.80000305175781
184.29822825721203,130.89999389648438
185.35198823671635,128.60000610351563
186.40554544695078,125.59999847412109
187.45889992773846,135.5
188.51205171887523,112.59999847412109
189.5650008601624,114.69999694824219
190.61774739138855,117.59999847412109
191.67029135232588,122.90000152587891
192.72263278274659,118.30000305175781
193.77477172241379,122.30000305175781
194.82670821106694,113.59999847412109
195.87844228846188,127.40000152587891
196.92997399431806,125.09999847412109
197.98130336836039,117.40000152587891
199.03243045030285,132.80000305175781
200.083355279854,144.5
201.13407789669873,134.5
202.18459834053465,152.10000610351563
203.23491665102665,152.69999694824219
204.28503286785053,160.80000305175781
205.33494703066026,165.69999694824219
206.38465917910617,167
207.43416935282403,191.80000305175781
208.48347759144417,180.19999694824219
209.53258393459691,185.89999389648438
210.58148842188348,188.80000305175781
211.63019109291054,200.69999694824219
212.67869198727021,193.30000305175781
213.726991144551,183.39999389648438
214.775088604325,199.30000305175781
215.82298440615341,180.10000610351563
216.8706785896029,190.5
217.91817119421466,177.60000610351563
218.96546225952443,188.5
220.01255182506975,175.69999694824219
221.05943993036635,167.39999389648438
222.10612661491905,150.89999389648438
223.15261191823993,154
224.19889587981743,154.19999694824219
225.24497853913635,146.19999694824219
226.29085993566514,126.30000305175781
227.33654010887221,126
228.38201909822055,115.5
229.42729694314221,111.09999847412109
230.47237368309288,128.10000610351563
231.51724935748462,121.30000305175781
232.56192400574764,118.09999847412109
233.60639766728673,108.5
234.65067038150482,102.5
235.69474218779396,88.699996948242188
236.73861312553527,100.69999694824219
237.78228323410804,97.199996948242188
238.82575255286974,93.199996948242188
239.86902112117787,95.4000015258789
240.9120889783826,90.800003051757813
241.95495616381777,96
242.99762271681357,99.699996948242188
244.04008867668745,95.5
245.08235408274959,98.300003051757813
246.1244189743029,111.69999694824219
247.16628339063755,106.30000305175781
248.20794737103279,130.39999389648438
249.24941095476788,128.69999694824219
250.29067418110571,118.09999847412109
251.33173708930008,136.80000305175781
252.37259971859567,131.5
253.41326210823536,120.69999694824219
254.45372429744384,106.69999694824219
255.49398632544035,115
256.53404823143683,90.0999984741211
257.57391005463069,89.800003051757813
258.61357183421751,80.800003051757813
259.65303360938196,73.699996948242188
260.69229541928871,67.4000015258789
261.73135730310787,62.5
262.77021929999864,82
263.80888144910386,42.400001525878906
264.84734378955909,61.700000762939453
265.88560636049988,69
266.92366920103996,54.700000762939453
267.9615323502876,61.200000762939453
268.99919584735289,48.5
270.03665973132047,49.799999237060547
271.07392404127677,63.5
272.1109888162955,40.700000762939453
273.14785409544129,58.599998474121094
274.18451991776965,67.800003051757813
275.22098632233428,60.599998474121094
276.25725334816525,59.799999237060547
277.29332103429442,75.5
278.32918941974458,59.599998474121094
279.36485854352395,63
280.40032844463531,64.5999984741211
281.43559916207232,48.299999237060547
282.4706707348214,60.400001525878906
283.50554320185074,55.900001525878906
284.540216602134,66.9000015258789
285.57469097462854,60.700000762939453
286.60896635827521,69.199996948242188
287.6430427920186,50.900001525878906
288.67692031479055,57.099998474121094
289.71059896550651,62
290.74407878308375,38.299999237060547
291.777359806425,49.200000762939453
292.81044207441846,30.600000381469727
293.84332562596137,42
294.87601049991827,35.700000762939453
295.90849673516095,48.299999237060547
296.94078437055396,37.400001525878906
297.97287344493816,39.200000762939453
299.00476399715808,30
300.03645606604368,20.600000381469727
301.06794969041584,22.299999237060547
302.09924490909361,27.899999618530273
303.13034176088149,40.099998474121094
304.16124028456943,23.399999618530273
305.1919405189492,28
306.222442502798,21.100000381469727
307.25274627488216,11.899999618530273
308.2828518739625,34.299999237060547
309.31275933879624,20.100000381469727
310.34246870811512,24.700000762939453
311.37198002066361,19.100000381469727
312.40129331515891,24.299999237060547
313.43040863031638,18
314.45932600484593,27.200000762939453
315.48804547744476,20.299999237060547
316.51656708679729,25.399999618530273
317.54489087158618,8.8000001907348633
318.57301687048675,26
319.60094512215619,38.299999237060547
320.62867566524437,16.100000381469727
321.65620853840483,14
322.68354378026197,12.800000190734863
323.71068142945296,20.700000762939453
324.73762152458949,12.899999618530273
325.76436410428141,8.1000003814697266
326.79090920712588,12.600000381469727
327.81725687171638,22.600000381469727
328.84340713663732,10
329.86936004045674,-4.5
330.8951156217463,13.300000190734863
331.92067391905039,2.2999999523162842
332.9460349709243,27.100000381469727
333.97119881590334,9.8000001907348633
334.99616549251732,22.100000381469727
336.02093503928518,7.0999999046325684
337.04550749471673,18.299999237060547
338.06988289731453,23.299999237060547
339.09406128557566,25.600000381469727
340.11804269798085,33.799999237060547
341.14182717300719,29.5
342.16541474912265,48.900001525878906
343.18880546478249,45
344.21199935844015,39.799999237060547
345.23499646853088,41.900001525878906
346.25779683349174,21.899999618530273
347.2804004917416,15.699999809265137
348.30280748169571,27.799999237060547
349.3250178417602,20.299999237060547
350.34703161032849,9.6000003814697266
351.36884882579034,22.799999237060547
352.39046952652461,1.6000000238418579
353.41189375090107,12.300000190734863
354.43312153727675,8.5
355.45415292401049,11
356.47498794944113,7.1999998092651367
357.49562665190388,12.199999809265137
358.51606906973029,10.5
359.53631524122466,11.399999618530273
360.55636520471126,17.700000762939453
361.576218998478,7
362.59587666081825,3
363.6153382300181,13.100000381469727
364.63460374434362,6
365.65367324206454,6.1999998092651367
366.67254676143239,8.3000001907348633
367.69122434069686,4
368.70970601810041,14.399999618530273
369.7279918318618,12
370.74608182021075,0.699999988079071
371.7639760213533,0.10000000149011612
372.78167447349733,-8.6999998092651367
373.79917721483071,15.699999809265137
374.81648428354674,7.1999998092651367
375.8335957178133,3.0999999046325684
376.85051155580732,4.5999999046325684
377.86723183568211,7.4000000953674316
378.88375659558915,-2.5999999046325684
379.90008587367265,-4.5999999046325684
380.91621970806045,5.8000001907348633
381.932158136884,8.5
382.94790119825484,1.3999999761581421
383.96344893028072,11.600000381469727
384.97880137105676,14.399999618530273
385.99395855867624,0.699999988079071
387.0089205312197,7.5
388.02368732675495,7.5
389.03825898334981,15.399999618530273
390.05263553905752,8
391.06681703192226,1.3999999761581421
392.08080349998454,-6.9000000953674316
393.09459498126671,11.199999809265137
394.10819151379292,4.6999998092651367
395.12159313558004,-0.10000000149011612
396.13479988461768,12.100000381469727
397.14781179890815,12.800000190734863
398.16062891643014,1.3999999761581421
399.17325127516779,3.7999999523162842
400.18567891308157,4.0999999046325684
401.19791186813563,9.6000003814697266
402.20995017827954,11.800000190734863
403.22179388145014,-2.2000000476837158
404.23344301558427,5
405.24489761860423,12.699999809265137
406.256157728425,14
407.26722338295986,7.5
408.27809462009827,13.300000190734863
409.28877147773528,13.800000190734863
410.29925399374588,2.5
411.30954220601052,11.399999618530273
412.31963615238783,7.5999999046325684
413.3295358707328,12
414.33924139889314,11.699999809265137
415.348752774702,5.8000001907348633
416.35807003599439,0.5
417.36719322058889,18.200000762939453
418.3761223662932,5.1999998092651367
419.38485751091685,3.2000000476837158
420.39339869224932,17.200000762939453
421.4017459480765,19.200000762939453
422.4098993161806,12.699999809265137
423.41785883432567,6.3000001907348633
424.42562454027211,10.899999618530273
425.43319647177304,14.699999809265137
426.44057466656886,8.5
427.44775916239269,11.5
428.45474999697581,13.5
429.46154720802588,1.8999999761581421
430.46815083326146,-2.0999999046325684
431.474560910372,4.8000001907348633
432.48077747705611,17.399999618530273
433.48680057099773,8.1999998092651367
434.4926302298627,13.600000381469727
435.49826649132046,9.1000003814697266
436.50370939302593,11.5
437.50895897263217,5.3000001907348633
438.5140152677759,9.8000001907348633
439.51887831608292,13.600000381469727
440.52354815518265,3
441.52802482268817,4
442.532308356198,9.3000001907348633
443.53639879331604,-1.2999999523162842
444.54029617162814,7
445.54400052871461,-0.800000011920929
446.54751190214483,9.1000003814697266
447.55083032947732,6.0999999046325684
448.553955848276,5.4000000953674316
449.55688849607577,6.6999998092651367
450.55962831042052,6.1999998092651367
451.56217532883238,-0.40000000596046448
452.56452958883892,-3.9000000953674316
453.56669112794589,9.5
454.56865998365174,10.100000381469727
455.57043619345859,5.5999999046325684
456.57201979484853,3.7000000476837158
457.57341082529638,-0.10000000149011612
458.57460932227514,5.8000001907348633
459.57561532323962,2.2999999523162842
460.57642886564281,10.600000381469727
461.57704998692861,4.9000000953674316
462.57747872453183,9.3999996185302734
463.57771511587816,8.8999996185302734
464.57775919838059,15.5
465.5776110094539,5.5999999046325684
466.57727058649289,12.199999809265137
467.57673796689414,-1.3999999761581421
468.5760131880379,-0.5
469.57509628729895,5.5
470.57398730204477,0.699999988079071
471.57268626963196,7.8000001907348633
472.57119322740982,-1.2000000476837158
473.56950821272039,12.5
474.56763126289479,2.7000000476837158
475.56556241525323,11.300000190734863
476.56330170711954,-13.600000381469727
477.5608491757921,15.600000381469727
478.55820485857475,1.6000000238418579
479.55536879275314,3.2999999523162842
480.55234101561109,10.100000381469727
481.54912156442151,3.5999999046325684
482.54571047644822,14.399999618530273
483.54210778894412,10.899999618530273
484.5383135391603,14
485.53432776433874,1
486.53015050170507,15.199999809265137
487.52578178848125,-3.7999999523162842
488.521221661882,21
489.51647015911294,7.4000000953674316
490.511527317376,1.2999999523162842
491.50639317384957,3.4000000953674316
492.50106776571556,0.5
493.49555113015049,0
494.48984330431631,0.699999988079071
495.48394432536406,0.40000000596046448
496.477854230443,15.800000190734863
497.47157305668588,0.10000000149011612
498.46510084122747,3.2999999523162842
499.45843762119148,1
500.45158343368166,5.4000000953674316
501.44453831580358,14.800000190734863
502.43730230465735,5.1999998092651367
503.4298754373267,10.300000190734863
504.42225775089173,-0.40000000596046448
505.41444928242527,17.700000762939453
506.40645006898194,1.5
507.39826014762366,10
508.38987955538869,8.1000003814697266
509.38130832932075,7.1999998092651367
510.3725465064399,9.6999998092651367
511.36359412377169,7.4000000953674316
512.35445121832345,3.2999999523162842
513.345117827108,-3.9000000953674316
514.33559398710713,-1.7999999523162842
515.32587973531554,5.9000000953674316
516.31597510870961,5.1999998092651367
517.305880144253,4.0999999046325684
518.29559487891856,9.6000003814697266
519.2851193496499,2.7000000476837158
520.27445359339254,-1.1000000238418579
521.2635976470865,8.3999996185302734
522.25255154765728,4.6999998092651367
523.24131533202308,6.4000000953674316
524.22988903709665,-0.5
525.21827269978348,14.600000381469727
526.20646635697267,-1.5
527.19447004554968,3.7999999523162842
528.18228380239634,17.100000381469727
529.16990766437993,3.7000000476837158
530.15734166836046,10.800000190734863
531.14458585119428,4.6999998092651367
532.13164024971957,-2.0999999046325684
533.11850490077813,-1.7999999523162842
534.1051798411936,19.100000381469727
535.09166510778778,5.5
536.0779607373679,3
537.06406676674123,12.800000190734863
538.04998323269865,-4.5
539.03571017202739,13.300000190734863
540.02124762150379,-2.0999999046325684
541.00659561790053,2.2999999523162842
541.99175419797393,7
542.97672339848032,-0.89999997615814209
543.96150325615963,13.899999618530273
544.94609380775364,7.5
545.93049508998593,13.800000190734863
546.91470713957824,6.5
547.89872999324143,3.7000000476837158
548.88256368767543,7.9000000953674316
549.86620825957834,10.899999618530273
550.84966374563555,7.8000001907348633
551.83293018252334,4.9000000953674316
552.81600760691072,8.3999996185302734
553.79889605546123,0.5
554.78159556482933,8.1999998092651367
555.76410617165857,3.0999999046325684
556.74642791258339,-10.5
557.72856082423277,2.7999999523162842
558.71050494323026,4.0999999046325684
559.692260306183,3.5999999046325684
560.67382694969274,12.899999618530273
561.65520491036477,-7.0999999046325684
562.63639422477536,6.5
563.617394929508,21.399999618530273
564.59820706113169,19.600000381469727
565.5788306562099,46.299999237060547
566.55926575129524,64.300003051757813
567.53951238293848,58.099998474121094
568.51957058766675,71.9000015258789
569.49944040201626,31.600000381469727
570.47912186250869,24.700000762939453
571.45861500565115,12.100000381469727
572.43791986795441,11
573.417036485911,3.7999999523162842
574.3959648960099,7.9000000953674316
575.37470513472908,4.1999998092651367
576.35325723854476,6.3000001907348633
577.3316212439131,15.199999809265137
578.309797187294,12
579.28778510513439,2.7999999523162842
580.26558503387241,5.3000001907348633
581.24319700993874,9.3999996185302734
582.22062106975318,-3.4000000953674316
583.1978572497319,11.5
584.17490558627833,1.2999999523162842
585.15176611579591,8.8999996185302734
586.12843887466624,5.9000000953674316
587.1049238992764,2.4000000953674316
588.08122122599343,8.3000001907348633
589.05733089119167,11.699999809265137
590.03325293122,5.3000001907348633
591.00898738242722,-1.2000000476837158
591.98453428115681,18.299999237060547
592.95989366373578,7.9000000953674316
593.93506556649481,-4.4000000953674316
594.91005002574457,17.600000381469727
595.88484707779207,18.399999618530273
596.85945675894072,1002
597.83387910547935,2929
598.808114153695,117.69999694824219
599.78216193985281,48.099998474121094
600.7560225002253,16.399999618530273
601.729695871074,6.6999998092651367
602.70318208864228,-1
603.67648118917714,11.600000381469727
604.64959320891285,9
605.62251818407458,-3.5
606.59525615087659,9.1999998092651367
607.56780714553315,1.8999999761581421
608.54017120424214,10.5
609.51234836320145,-3.0999999046325684
610.48433865859079,11.300000190734863
611.45614212658984,11
612.42775880336558,11.300000190734863
613.39918872508315,11.399999618530273
614.37043192788951,8.5
615.34148844793526,23.799999237060547
616.31235832134917,16.399999618530273
617.28304158426727,7.6999998092651367
618.253538272802,1.2000000476837158
619.2238484230711,7
620.19397207117981,3.4000000953674316
621.16390925321321,24.799999237060547
622.13366000527276,-2
623.103224363429,7.9000000953674316
624.07260236375441,6.0999999046325684
625.04179404231763,9.8999996185302734
626.01079943516561,2.9000000953674316
626.97961857835253,26.600000381469727
627.94825150791621,1.7000000476837158
628.91669825988356,2.2999999523162842
629.8849588702833,2.0999999046325684
630.85303337512414,-8.8000001907348633
631.8209218104148,13.399999618530273
632.7886242121549,5.5
633.75614061633678,11.600000381469727
634.72347105893823,-1.3999999761581421
635.69061557593523,12.5
636.65757420329646,11.800000190734863
637.6243469769779,-2.4000000953674316
638.59093393293,4.6999998092651367
639.55733510709615,11
640.5235505354085,0.5
641.48958025379216,16.299999237060547
642.45542429816669,-0.699999988079071
643.4210827044426,-2.2000000476837158
644.38655550851945,10.5
645.351842746295,6.1999998092651367
646.31694445364883,0.20000000298023224
647.28186066646231,12.899999618530273
648.24659142060591,0.5
649.21113675193737,4.1999998092651367
650.17549669631444,14
651.13967128958211,8.1000003814697266
652.10366056757266,1.8999999761581421
653.067464566122,1.8999999761581421
654.03108332104784,15.399999618530273
654.99451686816428,11.300000190734863
655.95776524327266,7
656.920828482178,16.799999237060547
657.88370662066518,10.800000190734863
658.84639969451382,13.899999618530273
659.80890773950159,5.4000000953674316
660.77123079139164,0.10000000149011612
661.733368885938,11.699999809265137
662.69532205889118,-0.20000000298023224
663.65709034599786,11.5
664.61867378298484,1.2000000476837158
665.58007240558072,10.399999618530273
666.54128624949954,4.9000000953674316
667.50231535045532,13.800000190734863
668.46315974414392,5.5
669.42381946626119,3.4000000953674316
670.38429455249025,24.899999618530273
671.34458503851238,5.6999998092651367
672.30469095999615,9.6000003814697266
673.2646123525974,7.1999998092651367
674.224349251972,14.100000381469727
675.18390169377017,8.8999996185302734
676.14326971362243,11.800000190734863
677.10245334716274,0.800000011920929
678.0614526300069,2.4000000953674316
679.02026759777618,12.300000190734863
679.97889828607,8.1999998092651367
680.93734473048789,2.9000000953674316
681.89560696662011,9
682.85368503004611,10.699999809265137
683.81157895634169,-1.2000000476837158
684.76928878106992,11.5
