-777.87311982425126,15.100000381469727
-776.63374739947358,17.200000762939453
-775.39461482227671,12.800000190734863
-774.15572204389719,26.600000381469727
-772.91706901559337,18.200000762939453
-771.67865568863454,22.299999237060547
-770.44048201429,16.399999618530273
-769.20254794384346,21.399999618530273
-767.96485342860433,23.700000762939453
-766.7273984198855,35.099998474121094
-765.49018286900719,15.600000381469727
-764.25320672730777,22.399999618530273
-763.01646994613657,21
-761.77997247685744,23.700000762939453
-760.5437142708488,19.700000762939453
-759.307695279489,29.399999618530273
-758.07191545417118,15.300000190734863
-756.83637474631723,24.100000381469727
-755.601073107342,30.5
-754.36601048868215,15.699999809265137
-753.13118684178153,21.399999618530273
-751.89660211810587,14.399999618530273
-750.66225626912092,16.899999618530273
-749.42814924630693,12
-748.19428100116238,25.5
-746.960651485193,29.600000381469727
-745.72726064991912,21.799999237060547
-744.49410844686827,14.100000381469727
-743.26119482758622,3.5
-742.02851974362966,26.600000381469727
-740.79608314656616,20.200000762939453
-739.5638849879706,23.700000762939453
-738.331925219436,24.100000381469727
-737.10020379257367,20.100000381469727
-735.86872065898388,23.799999237060547
-734.63747577031063,24.200000762939453
-733.406469078187,22.100000381469727
-732.17570053426061,10.5
-730.94517009020092,23.299999237060547
-729.71487769768464,21.100000381469727
-728.48482330838851,15
-727.25500687402564,11.300000190734863
-726.02542834630549,20.299999237060547
-724.79608767694481,20.299999237060547
-723.56698481768581,14.600000381469727
-722.33811972027434,17.200000762939453
-721.10949233647079,18.399999618530273
-719.88110261805014,16.700000762939453
-718.652950516791,15.100000381469727
-717.42503598449366,22.200000762939453
-716.19735897296232,20.899999618530273
-714.96991943401918,20.100000381469727
-713.74271731949739,27.100000381469727
-712.515752581241,18.5
-711.28902517110146,11.800000190734863
-710.06253504095184,23.200000762939453
-708.83628214267264,6
-707.610266428148,11.800000190734863
-706.384487849291,21.600000381469727
-705.15894635801124,17.399999618530273
-703.93364190623652,11.5
-702.70857444590911,21
-701.48374392898586,20.799999237060547
-700.25915030741635,18.100000381469727
-699.03479353318289,13.199999809265137
-697.81067355827872,9.8999996185302734
-696.58679033470071,24.5
-695.36314381444936,16.399999618530273
-694.1397339495652,15.399999618530273
-692.91656069207056,15.699999809265137
-691.69362399401689,18
-690.47092380745926,16.399999618530273
-689.24846008447821,15.399999618530273
-688.02623277714338,20.600000381469727
-686.80424183756077,17.299999237060547
-685.58248721782911,14.399999618530273
-684.360968870069,23.200000762939453
-683.13968674641546,6
-681.91864079900733,31.799999237060547
-680.69783097999425,17.899999618530273
-679.4772572415477,16
-678.25691953584283,16.899999618530273
-677.0368178150693,30.799999237060547
-675.81695203143136,8
-674.59732213714051,28.600000381469727
-673.37792808442282,17.5
-672.15876982551163,12.100000381469727
-670.9398473126621,29.100000381469727
-669.72116049812939,11.199999809265137
-668.50270933419051,20.200000762939453
-667.28449377312245,30.299999237060547
-666.0665137672313,12.899999618530273
-664.84876926881952,19.5
-663.63126023020413,11.5
-662.413986603724,14.100000381469727
-661.19694834172151,25.799999237060547
-659.9801453965465,14.100000381469727
-658.76357772057054,11.300000190734863
-657.54724526617247,13.699999809265137
-656.33114798573843,15.199999809265137
-655.11528583168,21.5
-653.89965875640155,17.799999237060547
-652.68426671233283,17.399999618530273
-651.46910965191455,10.800000190734863
-650.25418752759469,14.800000190734863
-649.03950029183216,7.6999998092651367
-647.825047897104,12.800000190734863
-646.61083029589463,16.700000762939453
-645.39684744069928,4.3000001907348633
-644.18309928402778,8.8000001907348633
-642.96958577839359,22.399999618530273
-641.75630687633929,19.200000762939453
-640.54326253040745,16.299999237060547
-639.33045269314425,15.699999809265137
-638.117877317125,18.100000381469727
-636.90553635492142,16.700000762939453
-635.69342975913059,15.699999809265137
-634.481557482357,5.4000000953674316
-633.26991947720853,18.5
-632.05851569631523,20.600000381469727
-630.84734609231418,12.100000381469727
-629.63641061784983,13.300000190734863
-628.4257092255848,15.199999809265137
-627.21524186819988,26.700000762939453
-626.00500849836862,10.300000190734863
-624.79500906879366,23.899999618530273
-623.58524353217763,10.899999618530273
-622.37571184124863,16.299999237060547
-621.1664139487275,19.700000762939453
-619.95734980736415,19.700000762939453
-618.74851936991581,2.9000000953674316
-617.539922589136,12
-616.33155941781479,24.700000762939453
-615.12342980873473,15
-613.91553371470036,8.6000003814697266
-612.70787108852346,11.199999809265137
-611.50044188302672,16.899999618530273
-610.29324605104739,8.6999998092651367
-609.08628354543725,13
-607.87955431905175,5.8000001907348633
-606.67305832475722,31.100000381469727
-605.46679551544912,9.6999998092651367
-604.26076584400835,23.5
-603.05496926335218,10.100000381469727
-601.849405726387,13.600000381469727
-600.64407518604821,25.299999237060547
-599.438977595275,9.8000001907348633
-598.234112907021,14.800000190734863
-597.02948107425073,10.899999618530273
-595.82508204993974,7.9000000953674316
-594.62091578707441,-1.2999999523162842
-593.41698223864842,18.700000762939453
-592.21328135768454,13.100000381469727
-591.009813097191,21.299999237060547
-589.80657741020877,17
-588.60357424978247,8.8000001907348633
-587.4008035689676,17.700000762939453
-586.19826532083425,11.899999618530273
-584.99595945845977,18.200000762939453
-583.793885934936,18.100000381469727
-582.5920447033659,12.800000190734863
-581.39043571686307,12.699999809265137
-580.18905892855764,10.199999809265137
-578.98791429158518,18.600000381469727
-577.78700175909034,10.300000190734863
-576.58632128423778,26.700000762939453
-575.38587282020308,12
-574.1856563201618,22.299999237060547
-572.98567173731681,19
-571.78591902487278,26
-570.58639813603986,19
-569.38710902406274,12.899999618530273
-568.18805164217156,12.300000190734863
-566.98922594362557,8.5
-565.790631881684,12
-564.59226940962253,10.899999618530273
-563.39413848073127,12.600000381469727
-562.19623904831133,6.1999998092651367
-560.99857106566742,15.800000190734863
-559.80113448612792,9.3999996185302734
-558.60392926301938,18.799999237060547
-557.40695534968654,12.800000190734863
-556.21021269949415,11.199999809265137
-555.0137012658015,13.300000190734863
-553.81742100199153,16.799999237060547
-552.62137186145628,10.800000190734863
-551.4255537975896,17.100000381469727
-550.22996676381626,11.199999809265137
-549.03461071355377,16.899999618530273
-547.8394856002451,11.899999618530273
-546.64459137733138,10.5
-545.449927998272,9
-544.25549541654073,18.899999618530273
-543.06129358562066,3.5
-541.86732245900566,10.5
-540.67358199019873,15.399999618530273
-539.48007213271376,14.800000190734863
-538.28679284007922,5.8000001907348633
-537.09374406584539,16.899999618530273
-535.900925763548,16.700000762939453
-534.70833788675736,17.100000381469727
-533.51598038904558,19.5
-532.32385322399932,8.3999996185302734
-531.13195634520889,21.700000762939453
-529.94028970629006,6.5
-528.74885326085314,13.399999618530273
-527.55764696253573,12
-526.36667076497724,8.6000003814697266
-525.17592462183165,14.5
-523.985408486762,-3.2999999523162842
-522.79512231344415,13.699999809265137
-521.60506605556839,8
-520.41523966682871,15
-519.22564310093912,13.399999618530273
-518.0362763116209,7.6999998092651367
-516.84713925260257,7.8000001907348633
-515.65823187763453,8
-514.46955414046715,16.5
-513.28110599486718,-1.7000000476837158
-512.09288739461954,6.5
-510.90489829350736,2.5
-509.71713864533194,11.899999618530273
-508.52960840390369,11.600000381469727
-507.3423075230512,12.899999618530273
-506.15523595660488,5.8000001907348633
-504.96839365841697,1.7999999523162842
-503.78178058233607,14.199999809265137
-502.59539668223624,1.5
-501.4092419119952,18
-500.223316225507,13.699999809265137
-499.0376195766712,16.899999618530273
-497.85215191940188,7
-496.666913207624,15.899999618530273
-495.48190339527719,9.5
-494.29712243630638,9.6000003814697266
-493.11257028467116,13.899999618530273
-491.928246894342,10.399999618530273
-490.7441522193003,9.1000003814697266
-489.56028621353471,10.899999618530273
-488.37664883105754,26
-487.19324002587746,1.2000000476837158
-486.01005975202315,16.200000762939453
-484.8271079635324,12.300000190734863
-483.6443846144557,5.8000001907348633
-482.46188965885085,11.899999618530273
-481.27962305079018,10.100000381469727
-480.09758474435512,6.6999998092651367
-478.91577469364165,3.9000000953674316
-477.73419285275304,12.5
-476.55283917580709,-8.8000001907348633
-475.37171361693436,11.699999809265137
-474.19081613026719,17.600000381469727
-473.010146669958,8.1999998092651367
-471.82970519017181,11.100000381469727
-470.64949164507379,9.6999998092651367
-469.46950598885633,15.199999809265137
-468.28974817570452,7.5999999046325684
-467.1102181598344,-0.40000000596046448
-465.93091589545475,4.5999999046325684
-464.75184133679977,14.600000381469727
-463.57299443810552,6.0999999046325684
-462.39437515362624,12
-461.2159834376198,6.1999998092651367
-460.03781924436043,10.800000190734863
-458.85988252813513,11.399999618530273
-457.68217324323632,19.5
-456.50469134396917,12.899999618530273
-455.32743678465886,-1.1000000238418579
-454.15040951962692,9.1999998092651367
-452.97360950321672,12.5
-451.79703668977709,15
-450.62069103367321,4.9000000953674316
-449.4445724892721,10.399999618530273
-448.26868101096989,5
-447.09301655315357,8.3000001907348633
-445.9175790702302,12
-444.74236851661954,3
-443.56738484675407,10.699999809265137
-442.39262801506811,13.699999809265137
-441.21809797601236,7.9000000953674316
-440.0437946840575,7.4000000953674316
-438.86971809366878,10.600000381469727
-437.69586815933872,11.899999618530273
-436.52224483555256,2.7000000476837158
-435.34884807682647,11.399999618530273
-434.17567783767481,13.899999618530273
-433.00273407262466,8.8000001907348633
-431.83001673621948,2.7000000476837158
-430.65752578300453,6.4000000953674316
-429.4852611675542,10.5
-428.31322284443013,20.100000381469727
-427.14141076821943,20.5
-425.96982489351649,16.600000381469727
-424.79846517493388,4.8000001907348633
-423.62733156708055,10
-422.45642402459453,13.100000381469727
-421.28574250211022,7.0999999046325684
-420.1152869542766,11.300000190734863
-418.94505733575534,-3.5
-417.77505360122632,20.5
-416.60527570536397,3.0999999046325684
-415.43572360287,20.399999618530273
-414.26639724844608,5.4000000953674316
-413.09729659681216,5.5999999046325684
-411.92842160268992,15
-410.7597722208302,12.699999809265137
-409.59134840596926,2.5
-408.42315011287792,11.100000381469727
-407.2551772963252,19.700000762939453
-406.087429911091,12.899999618530273
-404.9199079119735,11.199999809265137
-403.75261125377619,20.700000762939453
-402.58553989131542,6.3000001907348633
-401.41869377941293,7
-400.25207287291232,17
-399.08567712666627,3.5999999046325684
-397.919506495522,18.600000381469727
-396.75356093436312,11.899999618530273
-395.58784039806596,10.600000381469727
-394.42234484151959,4.4000000953674316
-393.25707421963307,22.600000381469727
-392.09202848732275,-0.60000002384185791
-390.92720759950862,17.899999618530273
-389.76261151112521,14.800000190734863
-388.59824017713072,6.1999998092651367
-387.43409355247422,4.5
-386.27017159212846,7.5999999046325684
-385.10647425107527,14.300000190734863
-383.94300148430193,12.399999618530273
-382.77975324681393,10.699999809265137
-381.616729493624,3.5
-380.453930179754,8.1999998092651367
-379.29135526024038,16.399999618530273
-378.129004690134,15.5
-376.96687842448227,9.5
-375.80497641835791,7.8000001907348633
-374.64329862683917,7.3000001907348633
-373.4818450050152,7.9000000953674316
-372.32061550798426,8.1000003814697266
-371.15961009086277,10.100000381469727
-369.99882870877082,8.8999996185302734
-368.83827131683756,18.799999237060547
-367.677937870214,19
-366.51782832404751,15
-365.3579426335109,12.600000381469727
-364.19828075377518,17.799999237060547
-363.03884264003136,11.800000190734863
-361.87962824747046,17.899999618530273
-360.7206375313126,12.899999618530273
-359.56187044677063,10.100000381469727
-358.403326949081,11.600000381469727
-357.24500699348027,23.600000381469727
-356.08691053522307,22.600000381469727
-354.92903752956954,11.600000381469727
-353.771387931798,23.200000762939453
-352.61396169719228,11.699999809265137
-351.45675878105067,14.699999809265137
-350.29977913867333,19.5
-349.14302272538407,11.100000381469727
-347.98648949651215,25.299999237060547
-346.83017940739046,27.399999618530273
-345.67409241337191,36.799999237060547
-344.51822846982031,18.399999618530273
-343.36258753210313,35.400001525878906
-342.20716955560965,34.5
-341.05197449572188,34.700000762939453
-339.89700230785638,20.799999237060547
-338.74225294741518,21
-337.58772636983667,30.700000762939453
-336.43342253054652,24.799999237060547
-335.27934138499768,22.399999618530273
-334.12548288865037,27
-332.97184699696481,16.5
-331.81843366542853,17.399999618530273
-330.66524284953266,24.200000762939453
-329.51227450476654,23.799999237060547
-328.35952858665769,21.200000762939453
-327.20700505071909,11.100000381469727
-326.05470385248555,19.899999618530273
-324.90262494750459,28.5
-323.75076829132558,29.399999618530273
-322.59913383951789,35.299999237060547
-321.44772154765633,31.799999237060547
-320.29653137132846,12.300000190734863
-319.14556326613092,27.399999618530273
-317.99481718767311,22.100000381469727
-316.84429309157531,27.399999618530273
-315.69399093346874,29.600000381469727
-314.54391066899007,29.100000381469727
-313.39405225379596,29.700000762939453
-312.24441564354129,37
-311.09500079390455,31.5
-309.94580766056788,30.299999237060547
-308.79683619922253,31.299999237060547
-307.64808636558337,30.5
-306.49955811535619,30.200000762939453
-305.35125140426862,31.899999618530273
-304.203166188061,36.900001525878906
-303.05530242247733,36.400001525878906
-301.90766006327794,40.700000762939453
-300.76023906623413,49.299999237060547
-299.61303938712081,36.099998474121094
-298.46606098173288,41.200000762939453
-297.31930380586527,50.099998474121094
-296.17276781533837,49.599998474121094
-295.02645296596893,57.700000762939453
-293.88035921359551,55.200000762939453
-292.73448651404942,65.800003051757813
-291.58883482319834,61.5
-290.44340409690449,47.299999237060547
-289.29819429103554,57.099998474121094
-288.15320536148647,52
-287.0084372641486,52.099998474121094
-285.86388995493689,65.800003051757813
-284.7195633897627,67.5
-283.57545752455371,68.5999984741211
-282.431572315254,71.0999984741211
-281.28790771781496,74.9000015258789
-280.1444636881879,79.0999984741211
-279.00124018235692,76.300003051757813
-277.8582371562934,77
-276.71545456599597,73.5
-275.57289236746692,91.9000015258789
-274.43055051671945,79.199996948242188
-273.28842896977221,82.9000015258789
-272.14652768267115,90.4000015258789
-271.00484661145128,81.5999984741211
-269.86338571217493,80.5999984741211
-268.72214494090622,103.5
-267.581124253722,84.0999984741211
-266.44032360671372,93.0999984741211
-265.29974295597458,80.800003051757813
-264.159382257616,95.5
-263.01924146776037,98.800003051757813
-261.87932054252815,97.5999984741211
-260.73961943807444,101.19999694824219
-259.60013811053796,104.69999694824219
-258.46087651608468,101.59999847412109
-257.32183461088971,101.80000305175781
-256.18301235113358,104.59999847412109
-255.04440969300595,115.30000305175781
-253.90602659271462,123
-252.76786300647473,110.80000305175781
-251.62991889051045,117.30000305175781
-250.49219420105146,106.80000305175781
-249.35468889435288,128.69999694824219
-248.217402926668,125.19999694824219
-247.08033625425924,135.80000305175781
-245.94348883341445,138
-244.80686062040877,140.19999694824219
-243.67045157154826,143.30000305175781
-242.53426164314442,139.19999694824219
-241.39829079150877,145.60000610351563
-240.26253897297829,141.10000610351563
-239.12700614388814,164.69999694824219
-237.99169226059348,162.5
-236.85659727945676,163.60000610351563
-235.72172115684771,181.30000305175781
-234.58706384914331,179.69999694824219
-233.4526253127442,191.30000305175781
-232.31840550405468,185.69999694824219
-231.18440437947902,190.10000610351563
-230.05062189545242,185.5
-228.91705800840282,218.80000305175781
-227.78371267477996,219.60000610351563
-226.65058585103725,232.39999389648438
-225.51767749363898,217.80000305175781
-224.38498755906403,236.69999694824219
-223.2525160037967,241.69999694824219
-222.1202627843395,254.69999694824219
-220.98822785719858,273.20001220703125
-219.85641117888918,266.10000610351563
-218.7248127059429,278.70001220703125
-217.59343239489681,293.70001220703125
-216.46227020230072,306.39999389648438
-215.3313260847226,300.60000610351563
-214.20059999872137,312.60000610351563
-213.07009190087956,307.79998779296875
-211.9398017477979,317.79998779296875
-210.80972949606621,336.39999389648438
-209.67987510230523,342.79998779296875
-208.5502385231357,330.5
-207.42081971518564,332.60000610351563
-206.29161863510308,336.60000610351563
-205.16263523954149,317.29998779296875
-204.03386948516163,322.70001220703125
-202.90532132864428,324.5
-201.77699072666474,311.39999389648438
-200.64887763592742,319
-199.52098201313311,317.39999389648438
-198.39330381500076,312.70001220703125
-197.26584299825117,314.10000610351563
-196.13859951962695,321.60000610351563
-195.01157333587253,305.10000610351563
-193.88476440374143,308.10000610351563
-192.75817268001083,317.5
-191.63179812144881,306.29998779296875
-190.50564068485255,313.10000610351563
-189.3797003270156,302.79998779296875
-188.25397700474423,323.10000610351563
-187.12847067486291,314.39999389648438
-186.00318129420339,318.79998779296875
-184.87810881960104,331.20001220703125
-183.75325320790944,348.39999389648438
-182.62861441598398,382.10000610351563
-181.50419240070187,362.60000610351563
-180.37998711894033,382.29998779296875
-179.25599852759296,406.39999389648438
-178.13222658356062,412.89999389648438
-177.00867124376236,447.89999389648438
-175.88533246510815,478.5
-174.76221020454068,508.10000610351563
-173.63930441900084,561.20001220703125
-172.51661506544224,580
-171.39414210082759,618.0999755859375
-170.27188548212871,665.5
-169.14984516633558,704.0999755859375
-168.02802111043638,760.79998779296875
-166.90641327144112,785.0999755859375
-165.78502160636344,855.9000244140625
-164.66384607223154,861
-163.54288662607541,872.29998779296875
-162.4221432249451,880.5
-161.30161582589426,901.70001220703125
-160.18130438598928,891.5
-159.06120886230929,912.29998779296875
-157.94132921194432,938.29998779296875
-156.82166539198624,939.79998779296875
-155.70221735953965,944.4000244140625
-154.58298507173095,916.70001220703125
-153.46396848568111,969
-152.34516755853474,957.29998779296875
-151.22658224743282,1017.2000122070313
-150.10821250953813,1029.199951171875
-148.99005830202077,1026.699951171875
-147.87211958205626,1066.300048828125
-146.75439630683832,1097.9000244140625
-145.63688843355885,1152.300048828125
-144.51959591943705,1172
-143.40251872168847,1237.5999755859375
-142.28565679753956,1267.4000244140625
-141.16901010423499,1322.300048828125
-140.05257859902849,1377.300048828125
-138.93636223917383,1410.5999755859375
-137.82036098194294,1470.5
-136.70457478462595,1509.5999755859375
-135.58900360449843,1584.300048828125
-134.47364739887416,1633.300048828125
-133.35850612506329,1715.800048828125
-132.24357974038321,1786.9000244140625
-131.12886820217136,1845.699951171875
-130.01437146776334,1882.4000244140625
-128.90008949451476,1959.199951171875
-127.78602223979033,2048.300048828125
-126.67216966095839,2091.39990234375
-125.55853171540366,2153.60009765625
-124.44510836051813,2248.199951171875
-123.33189955371017,2246.89990234375
-122.2189052523845,2362.800048828125
-121.10612541397313,2390.800048828125
-119.9935599959008,2434.39990234375
-118.88120895561769,2513.60009765625
-117.76907225057403,2508
-116.65714983823818,2550.199951171875
-115.54544167607855,2621.800048828125
-114.43394772158354,2630.699951171875
-113.32266793224335,2652.699951171875
-112.21160226556458,2733.199951171875
-111.10075067906291,2788.89990234375
-109.99011313026131,2801.89990234375
-108.87968957669545,2795.5
-107.76947997590833,2905.39990234375
-106.65948428545926,2951.699951171875
-105.54970246290759,3038.800048828125
-104.44013446582903,3040.300048828125
-103.33078025181567,3110
-102.22163977845048,3155.300048828125
-101.11271300335284,3203.10009765625
-100.00399988412755,3279.89990234375
-98.8955003784049,3338.39990234375
-97.787214443818812,3425
-96.679142038015925,3510.39990234375
-95.571283118651991,3642.10009765625
-94.46363764339003,3801
-93.356205569909434,3924.39990234375
-92.248986855895055,4143.7001953125
-91.141981459042654,4237.89990234375
-90.035189337055272,4340.2001953125
-88.928610447654137,4387.7998046875
-87.8222447485623,4387.7998046875
-86.716092197515536,4338.60009765625
-85.610152752264185,4380.39990234375
-84.504426370558576,4353.89990234375
-83.3989130101636,4433.5
-82.29361262886232,4455.10009765625
-81.188525184439641,4392.5
-80.083650634691367,4421.39990234375
-78.978988937416943,4499.2001953125
-77.8745400504431,4562.89990234375
-76.7703039315893,4765.10009765625
-75.666280538693172,5042.89990234375
-74.56246982959965,5120.39990234375
-73.45887176217002,5383.60009765625
-72.355486294265575,5546.39990234375
-71.2523133837658,5614.2998046875
-70.149352988557439,5706.2998046875
-69.046605066534539,5689.7001953125
-67.944069575602043,5595.7001953125
-66.84174647367945,5438.10009765625
-65.739635718693535,5476.10009765625
-64.63773726857471,5451
-63.5360510812734,5587.89990234375
-62.434577114750937,5681.7998046875
-61.3333153269632,5896.7998046875
-60.232265675895178,6213.60009765625
-59.131428119522752,6656.2001953125
-58.030802615854554,7275.2001953125
-56.930389122886481,7857.7998046875
-55.830187598636257,8437.099609375
-54.730198001132521,8766.900390625
-53.630420288413006,8896.2001953125
-52.530854418515446,8685.900390625
-51.431500349504859,8453.7001953125
-50.332358039440805,8389.2998046875
-49.233427446402857,8546.2998046875
-48.134708528470583,9172.2001953125
-47.036201243741743,10546.400390625
-45.937905550323194,12518.099609375
-44.839821406334522,15004
-43.74194876988804,17709.900390625
-42.64428759913244,19969.19921875
-41.5468378522055,20937.400390625
-40.449599487265004,21456.599609375
-39.352572462472381,21810
-38.255756736005424,21935.400390625
-37.159152266047386,22250.30078125
-36.062759010790614,21907.400390625
-34.966576928443828,20272.69921875
-33.8706059772212,18672.599609375
-32.774846115338732,17471.099609375
-31.679297301039696,18238.599609375
-30.583959492563736,22080.30078125
-29.488832648166863,27751
-28.393916726110547,32730
-27.299211684672628,33617.5
-26.204717482129126,30596.69921875
-25.110434076774254,24361.5
-24.016361426916774,18964.69921875
-22.922499490865448,15976.5
-21.828848226945411,14515.2998046875
-20.735407593489072,13381.400390625
-19.642177548834297,12408.599609375
-18.549158051340783,11485.400390625
-17.456349059368222,10925.2998046875
-16.363750531281767,10674.599609375
-15.271362425470215,10710.7998046875
-14.179184700326005,10598.599609375
-13.087217314247027,10826.400390625
-11.995460225642091,10904.7998046875
-10.903913392940012,11163.099609375
-9.8125767745696066,11323.099609375
-8.7214503289651475,11582.7998046875
-7.6305340145827358,11795.2998046875
-6.5398277898821107,11479.5
-5.4493316133357439,9784.7001953125
-4.3590454434179264,6850.7998046875
-3.26896923861932,3669.10009765625
-2.1791029574433196,1763.300048828125
-1.0894465583987767,1049.0999755859375
-3.637978807091713E-12,1030.5999755859375
1.0892367592168739,1792.300048828125
2.1782637607157085,3119.5
3.2670810459494533,5982.7001953125
4.3556886563619628,9216.5
5.4440866333861777,11152.900390625
6.5322750184368488,11563.7998046875
7.6202538529305457,11534.599609375
8.7080231782692863,11400.7001953125
9.7955830358478124,11194.400390625
10.882933467048133,11182.099609375
11.970074513241343,10995.7001953125
13.0570062157949,10970.7001953125
14.143728616063527,11053.900390625
15.230241755389216,11124.599609375
16.316545675103043,11287.599609375
17.402640416532449,11720.900390625
18.488526020995778,12663.2998046875
19.574202529791364,13724.7001953125
20.659669984221182,14847.900390625
21.744928425567196,16381.900390625
22.82997789510955,18840.19921875
23.914818434106564,23467
24.99945008382565,30173.5
26.083872885503297,35164.69921875
27.168086880381452,36528.69921875
28.252092109691148,33278.5
29.33588861464159,26810.099609375
30.419476436449258,21196.19921875
31.502855616305169,19292
32.586026195402155,19769.599609375
33.668988214920319,21567.900390625
34.751741716028846,23555.19921875
35.834286739884192,24588.19921875
36.916623327637353,24919.400390625
37.998751520428414,24851.099609375
39.080671359392,24343.5
40.162382885640909,24197.400390625
41.243886140291579,23420.30078125
42.325181164447713,21808.400390625
43.406267999200281,19175.69921875
44.4871466856257,16121
45.5678172648004,13548.099609375
46.648279777786229,11618.599609375
47.72853426563961,10411.7998046875
48.8085807694024,9939.7001953125
49.888419330107354,9865.599609375
50.968049988779967,10113.2001953125
52.047472786436629,10522.2001953125
53.126687764075541,10533.2001953125
54.205694962698544,10416.400390625
55.284494423289289,9884
56.363086186827786,9271.7001953125
57.44147029427404,8522.5
58.519646786589874,7924.39990234375
59.597615704718919,7456.2001953125
60.67537708960117,7053.89990234375
61.752930982163889,6854.5
62.83027742332888,6754.7998046875
63.90741645399612,6690.7998046875
64.984348115074681,6683
66.061072447448169,6772.7001953125
67.13758949199655,6894.2001953125
68.213899289597975,6931.89990234375
69.29000188109967,7075.7001953125
70.36589730736705,7055.7998046875
71.441585609234608,6894.5
72.517066827535018,6728.7998046875
73.592341003088222,6587.5
74.667408176715981,6280.2001953125
75.742268389207311,6030.2001953125
76.816921681369422,5900.2998046875
77.891368093980418,5808.7998046875
78.965607667816585,5710.10009765625
80.039640443639655,5674.89990234375
81.113466462209544,5781.60009765625
82.187085764271615,5773.60009765625
83.260498390560315,5852.2001953125
84.333704381804637,5746.60009765625
85.40670377871902,5781.39990234375
86.479496622014267,5727.5
87.552082952388446,5802.7998046875
88.624462810528712,5780.60009765625
89.6966362371113,5654.5
90.76860327281247,5631.2001953125
91.840363958286616,5426.10009765625
92.911918334189977,5295.10009765625
93.983266441158776,5068.60009765625
95.054408319829236,4911.39990234375
96.12534401081939,4783.39990234375
97.19607355474,4720
98.2665969922,4560.7001953125
99.336914363786491,4512.7998046875
100.40702571009024,4495.7001953125
101.47693107168197,4427.5
102.54663048912334,4298.2998046875
103.61612400297781,4315.10009765625
104.68541165378701,4295.10009765625
105.75449348208713,4208.2998046875
106.82336952840706,4121.10009765625
107.89203983326297,4108.39990234375
108.96050443715831,4017.10009765625
110.02876338060378,3996
111.09681670407736,3948.89990234375
112.16466444806247,3913.199951171875
113.23230665302981,3867.5
114.2997433594428,3817.199951171875
115.36697460774849,3789.60009765625
116.43400043838665,3690
117.50082089179705,3638.60009765625
118.56743600839945,3655.60009765625
119.63384582860272,3550.5
120.70005039281386,3446.60009765625
121.76604974143083,3408.199951171875
122.83184391483519,3395.800048828125
123.89743295340486,3255
124.96281689750322,3241.10009765625
126.02799578748636,3118
127.09296966370857,2998.800048828125
128.15773856649867,2932.300048828125
129.22230253619455,2845.199951171875
130.28666161311048,2763.60009765625
131.35081583755345,2656.5
132.414765249825,2575.300048828125
133.47850989022481,2537.60009765625
134.54204979901988,2400.60009765625
135.60538501649535,2405.800048828125
136.66851558290364,2267
137.73144153850444,2216.199951171875
138.79416292353926,2149.10009765625
139.85667977824414,2069.800048828125
140.91899214284422,1978.4000244140625
141.9811000575537,1970.699951171875
143.0430035625759,1882.4000244140625
144.10470269811231,1834.300048828125
145.16619750435348,1796.300048828125
146.22748802146998,1745
147.28857428963602,1678.199951171875
148.3494563490076,1665.9000244140625
149.41013423973891,1591
150.47060800196778,1576.5999755859375
151.53087767582292,1574
152.59094330143125,1526.5999755859375
153.65080491890512,1525.800048828125
154.71046256834779,1513.4000244140625
155.76991628984433,1545.199951171875
156.82916612349436,1536.0999755859375
157.88821210936294,1536.4000244140625
158.94705428751695,1523.9000244140625
160.00569269801963,1488.5999755859375
161.06412738090876,1520.800048828125
162.12235837622939,1468.5
163.18038572400837,1432.5
164.23820946425803,1394.699951171875
165.29582963700341,1385.5
166.35324628222952,1336.699951171875
167.41045943993777,1291.0999755859375
168.4674691501059,1224.300048828125
169.52427545270439,1129.5
170.58087838770371,1055.5999755859375
171.63727799505432,991
172.6934743146976,893.4000244140625
173.74946738657491,871.5999755859375
174.80525725060761,847.5
175.86084394671525,808.5999755859375
176.91622751480463,722.29998779296875
177.97140799477529,714.20001220703125
179.02638542651403,682.20001220703125
180.08115984989854,635.29998779296875
181.13573130480836,657.70001220703125
182.1900998310939,612.9000244140625
183.24426546861469,591.0999755859375
184.29822825721203,571.79998779296875
185.35198823671635,580.5
186.40554544695078,550.5999755859375
187.45889992773846,575.20001220703125
188.51205171887523,550
189.5650008601624,545.29998779296875
190.61774739138855,553.29998779296875
191.67029135232588,545
192.72263278274659,558.5
193.77477172241379,568.29998779296875
194.82670821106694,524.5
195.87844228846188,569.9000244140625
196.92997399431806,562.0999755859375
197.98130336836039,573
199.03243045030285,581.9000244140625
200.083355279854,572.5999755859375
201.13407789669873,578.0999755859375
202.18459834053465,584.9000244140625
203.23491665102665,592.70001220703125
204.28503286785053,574.4000244140625
205.33494703066026,599.79998779296875
206.38465917910617,589.9000244140625
207.43416935282403,628.79998779296875
208.48347759144417,583.70001220703125
209.53258393459691,591.5
210.58148842188348,594.5
211.63019109291054,580.5999755859375
212.67869198727021,556.5999755859375
213.726991144551,577.9000244140625
214.775088604325,563.29998779296875
215.82298440615341,562.5999755859375
216.8706785896029,543.0999755859375
217.91817119421466,516.5
218.96546225952443,522.29998779296875
220.01255182506975,514.79998779296875
221.05943993036635,471.89999389648438
222.10612661491905,473.39999389648438
223.15261191823993,450.60000610351563
224.19889587981743,468.5
225.24497853913635,442.39999389648438
226.29085993566514,413
227.33654010887221,409.10000610351563
228.38201909822055,387.10000610351563
229.42729694314221,386.5
230.47237368309288,375
231.51724935748462,371.89999389648438
232.56192400574764,360.39999389648438
233.60639766728673,328.39999389648438
234.65067038150482,332.60000610351563
235.69474218779396,345.29998779296875
236.73861312553527,312.29998779296875
237.78228323410804,326.29998779296875
238.82575255286974,311.29998779296875
239.86902112117787,315.70001220703125
240.9120889783826,315.89999389648438
241.95495616381777,290.79998779296875
242.99762271681357,294.39999389648438
244.04008867668745,282.89999389648438
245.08235408274959,280
246.1244189743029,274.39999389648438
247.16628339063755,262.79998779296875
248.20794737103279,269.29998779296875
249.24941095476788,256.5
250.29067418110571,235.30000305175781
251.33173708930008,254.80000305175781
252.37259971859567,249.89999389648438
253.41326210823536,251.30000305175781
254.45372429744384,215.10000610351563
255.49398632544035,239.19999694824219
256.53404823143683,222.30000305175781
257.57391005463069,216.60000610351563
258.61357183421751,216.60000610351563
259.65303360938196,211.80000305175781
260.69229541928871,203.30000305175781
261.73135730310787,202.30000305175781
262.77021929999864,201.5
263.80888144910386,193
264.84734378955909,203.69999694824219
265.88560636049988,198.10000610351563
266.92366920103996,182.89999389648438
267.9615323502876,182.30000305175781
268.99919584735289,185.5
270.03665973132047,194
271.07392404127677,191
272.1109888162955,175.60000610351563
273.14785409544129,178.39999389648438
274.18451991776965,186.30000305175781
275.22098632233428,174.5
276.25725334816525,180.5
277.29332103429442,176.10000610351563
278.32918941974458,174.30000305175781
279.36485854352395,175.10000610351563
280.40032844463531,166.89999389648438
281.43559916207232,154.19999694824219
282.4706707348214,156
283.50554320185074,146.19999694824219
284.540216602134,147.5
285.57469097462854,153.30000305175781
286.60896635827521,150.69999694824219
287.6430427920186,137
288.67692031479055,118.09999847412109
289.71059896550651,132
290.74407878308375,124.69999694824219
291.777359806425,130
292.81044207441846,106.19999694824219
293.84332562596137,111.90000152587891
294.87601049991827,111.80000305175781
295.90849673516095,101.59999847412109
296.94078437055396,108
297.97287344493816,107.59999847412109
299.00476399715808,92.5999984741211
300.03645606604368,88.0999984741211
301.06794969041584,87
302.09924490909361,91.5
303.13034176088149,104.90000152587891
304.16124028456943,71.4000015258789
305.1919405189492,86.4000015258789
306.222442502798,81.4000015258789
307.25274627488216,77.300003051757813
308.2828518739625,93.5999984741211
309.31275933879624,74
310.34246870811512,74.5
311.37198002066361,71.199996948242188
312.40129331515891,63
313.43040863031638,77.699996948242188
314.45932600484593,69.4000015258789
315.48804547744476,60.200000762939453
316.51656708679729,65.5999984741211
317.54489087158618,63.900001525878906
318.57301687048675,61.400001525878906
319.60094512215619,69.0999984741211
320.62867566524437,65.4000015258789
321.65620853840483,55.900001525878906
322.68354378026197,54.400001525878906
323.71068142945296,58.299999237060547
324.73762152458949,64.699996948242188
325.76436410428141,58.200000762939453
326.79090920712588,59
327.81725687171638,50.900001525878906
328.84340713663732,49.400001525878906
329.86936004045674,34.5
330.8951156217463,48.700000762939453
331.92067391905039,34.799999237060547
332.9460349709243,55.700000762939453
333.97119881590334,51.400001525878906
334.99616549251732,57.5
336.02093503928518,42.299999237060547
337.04550749471673,57.200000762939453
338.06988289731453,63
339.09406128557566,63.700000762939453
340.11804269798085,77.0999984741211
341.14182717300719,62.5
342.16541474912265,74.800003051757813
343.18880546478249,60.799999237060547
344.21199935844015,59.299999237060547
345.23499646853088,66.9000015258789
346.25779683349174,58
347.2804004917416,37.900001525878906
348.30280748169571,50.299999237060547
349.3250178417602,54.5
350.34703161032849,38.700000762939453
351.36884882579034,37.299999237060547
352.39046952652461,35.200000762939453
353.41189375090107,44.700000762939453
354.43312153727675,26.399999618530273
355.45415292401049,29.899999618530273
356.47498794944113,32
357.49562665190388,25.899999618530273
358.51606906973029,19.200000762939453
359.53631524122466,25.399999618530273
360.55636520471126,36.599998474121094
361.576218998478,36.299999237060547
362.59587666081825,24
363.6153382300181,33.200000762939453
364.63460374434362,22.100000381469727
365.65367324206454,32
366.67254676143239,24.299999237060547
367.69122434069686,25.5
368.70970601810041,35.700000762939453
369.7279918318618,24.299999237060547
370.74608182021075,26.5
371.7639760213533,13.199999809265137
372.78167447349733,15.5
373.79917721483071,24.899999618530273
374.81648428354674,19
375.8335957178133,19.399999618530273
376.85051155580732,21.399999618530273
377.86723183568211,16.700000762939453
378.88375659558915,13.199999809265137
379.90008587367265,13.199999809265137
380.91621970806045,23.399999618530273
381.932158136884,32
382.94790119825484,19.899999618530273
383.96344893028072,20.399999618530273
384.97880137105676,20.899999618530273
385.99395855867624,14.5
387.0089205312197,22.600000381469727
388.02368732675495,29.799999237060547
389.03825898334981,20.100000381469727
390.05263553905752,11.300000190734863
391.06681703192226,7.3000001907348633
392.08080349998454,8.8999996185302734
393.09459498126671,15.899999618530273
394.10819151379292,4.4000000953674316
395.12159313558004,16.299999237060547
396.13479988461768,15.800000190734863
397.14781179890815,22.399999618530273
398.16062891643014,8.8000001907348633
399.17325127516779,24.100000381469727
400.18567891308157,4.5
401.19791186813563,15.100000381469727
402.20995017827954,13.600000381469727
403.22179388145014,11.199999809265137
404.23344301558427,28.600000381469727
405.24489761860423,21.600000381469727
406.256157728425,21.600000381469727
407.26722338295986,19
408.27809462009827,23.700000762939453
409.28877147773528,12.899999618530273
410.29925399374588,12.399999618530273
411.30954220601052,16.799999237060547
412.31963615238783,10.399999618530273
413.3295358707328,15.300000190734863
414.33924139889314,25.899999618530273
415.348752774702,3.0999999046325684
416.35807003599439,14.300000190734863
417.36719322058889,14.600000381469727
418.3761223662932,12.5
419.38485751091685,9.8999996185302734
420.39339869224932,20.700000762939453
421.4017459480765,19.399999618530273
422.4098993161806,16.399999618530273
423.41785883432567,16.399999618530273
424.42562454027211,10.300000190734863
425.43319647177304,17.700000762939453
426.44057466656886,14.300000190734863
427.44775916239269,16.700000762939453
428.45474999697581,11.300000190734863
429.46154720802588,9.5
430.46815083326146,8.8999996185302734
431.474560910372,13.600000381469727
432.48077747705611,24.5
433.48680057099773,11.100000381469727
434.4926302298627,7.4000000953674316
435.49826649132046,16.600000381469727
436.50370939302593,18.200000762939453
437.50895897263217,17.200000762939453
438.5140152677759,10.600000381469727
439.51887831608292,13.100000381469727
440.52354815518265,1.2999999523162842
441.52802482268817,6.9000000953674316
442.532308356198,12.600000381469727
443.53639879331604,4.0999999046325684
444.54029617162814,12.5
445.54400052871461,4.5999999046325684
446.54751190214483,15.100000381469727
447.55083032947732,8.6999998092651367
448.553955848276,5.6999998092651367
449.55688849607577,3.2000000476837158
450.55962831042052,2.2000000476837158
451.56217532883238,14.199999809265137
452.56452958883892,1.7000000476837158
453.56669112794589,11.100000381469727
454.56865998365174,9.1999998092651367
455.57043619345859,7.9000000953674316
456.57201979484853,5.5999999046325684
457.57341082529638,-4.6999998092651367
458.57460932227514,14.399999618530273
459.57561532323962,8.3000001907348633
460.57642886564281,9.3999996185302734
461.57704998692861,9.3000001907348633
462.57747872453183,11.800000190734863
463.57771511587816,19.100000381469727
464.57775919838059,9.6999998092651367
465.5776110094539,2.7999999523162842
466.57727058649289,16.899999618530273
467.57673796689414,-1.1000000238418579
468.5760131880379,3.0999999046325684
469.57509628729895,7.0999999046325684
470.57398730204477,9.3999996185302734
471.57268626963196,-7.6999998092651367
472.57119322740982,16.5
473.56950821272039,-1.7999999523162842
474.56763126289479,11
475.56556241525323,8.5
476.56330170711954,2.0999999046325684
477.5608491757921,9.6000003814697266
478.55820485857475,-3.5
479.55536879275314,6.5
480.55234101561109,8.6000003814697266
481.54912156442151,3.9000000953674316
482.54571047644822,6.6999998092651367
483.54210778894412,4.3000001907348633
484.5383135391603,7.3000001907348633
485.53432776433874,0.40000000596046448
486.53015050170507,11.199999809265137
487.52578178848125,1.6000000238418579
488.521221661882,14.899999618530273
489.51647015911294,0.89999997615814209
490.511527317376,-0.60000002384185791
491.50639317384957,-0.10000000149011612
492.50106776571556,9.6999998092651367
493.49555113015049,-4.5999999046325684
494.48984330431631,7.6999998092651367
495.48394432536406,-4.5999999046325684
496.477854230443,9
497.47157305668588,-5.6999998092651367
498.46510084122747,13.5
499.45843762119148,0.699999988079071
500.45158343368166,8.6999998092651367
501.44453831580358,3.2999999523162842
502.43730230465735,1.2000000476837158
503.4298754373267,4.1999998092651367
504.42225775089173,3.9000000953674316
505.41444928242527,1.6000000238418579
506.40645006898194,-1.7999999523162842
507.39826014762366,7.5999999046325684
508.38987955538869,3.2000000476837158
509.38130832932075,2
510.3725465064399,1.5
511.36359412377169,-1.5
512.35445121832345,7.9000000953674316
513.345117827108,8.1000003814697266
514.33559398710713,-1.5
515.32587973531554,13.800000190734863
516.31597510870961,0.89999997615814209
517.305880144253,7.8000001907348633
518.29559487891856,-4.5
519.2851193496499,3.7999999523162842
520.27445359339254,-2.7000000476837158
521.2635976470865,-1.5
522.25255154765728,-10
523.24131533202308,-1.7999999523162842
524.22988903709665,2.0999999046325684
525.21827269978348,4.5999999046325684
526.20646635697267,-3.0999999046325684
527.19447004554968,3.7000000476837158
528.18228380239634,9.1999998092651367
529.16990766437993,-6.1999998092651367
530.15734166836046,-1
531.14458585119428,-3
532.13164024971957,-3.7999999523162842
533.11850490077813,-3.4000000953674316
534.1051798411936,8.1000003814697266
535.09166510778778,4.5999999046325684
536.0779607373679,-3.2000000476837158
537.06406676674123,-5.8000001907348633
538.04998323269865,3
539.03571017202739,8.1000003814697266
540.02124762150379,2.5999999046325684
541.00659561790053,-5.9000000953674316
541.99175419797393,-0.30000001192092896
542.97672339848032,-2.7999999523162842
543.96150325615963,12
544.94609380775364,5.0999999046325684
545.93049508998593,3.7000000476837158
546.91470713957824,-1
547.89872999324143,-7.0999999046325684
548.88256368767543,-2.7999999523162842
549.86620825957834,6.8000001907348633
550.84966374563555,3
551.83293018252334,-10.699999809265137
552.81600760691072,9.8999996185302734
553.79889605546123,2.2999999523162842
554.78159556482933,0.40000000596046448
555.76410617165857,-0.89999997615814209
556.74642791258339,-10.600000381469727
557.72856082423277,1.3999999761581421
558.71050494323026,2.5999999046325684
559.692260306183,9.3000001907348633
560.67382694969274,4.5
561.65520491036477,2.5
562.63639422477536,9.1999998092651367
563.617394929508,23.600000381469727
564.59820706113169,30.600000381469727
565.5788306562099,71.300003051757813
566.55926575129524,88.699996948242188
567.53951238293848,78.800003051757813
568.51957058766675,76.5
569.49944040201626,30.799999237060547
570.47912186250869,22.600000381469727
571.45861500565115,14.300000190734863
572.43791986795441,9.3999996185302734
573.417036485911,1.5
574.3959648960099,-1.7999999523162842
575.37470513472908,8.1999998092651367
576.35325723854476,8.6000003814697266
577.3316212439131,7.8000001907348633
578.309797187294,5.5
579.28778510513439,3.9000000953674316
580.26558503387241,-1.1000000238418579
581.24319700993874,10.800000190734863
582.22062106975318,-9.5
583.1978572497319,16.899999618530273
584.17490558627833,0
585.15176611579591,7.5999999046325684
586.12843887466624,0.30000001192092896
587.1049238992764,-7.9000000953674316
588.08122122599343,2.7000000476837158
589.05733089119167,2.0999999046325684
590.03325293122,9
591.00898738242722,7
591.98453428115681,-3.0999999046325684
592.95989366373578,3.7999999523162842
593.93506556649481,-1.6000000238418579
594.91005002574457,1.7999999523162842
595.88484707779207,-1.7000000476837158
596.85945675894072,-6.8000001907348633
597.83387910547935,-2.4000000953674316
598.808114153695,16.799999237060547
599.78216193985281,3.7000000476837158
600.7560225002253,1.1000000238418579
601.729695871074,-0.30000001192092896
602.70318208864228,-0.5
603.67648118917714,3.7000000476837158
604.64959320891285,3.9000000953674316
605.62251818407458,-4.9000000953674316
606.59525615087659,-2.0999999046325684
607.56780714553315,-6.6999998092651367
608.54017120424214,4.5999999046325684
609.51234836320145,-4.3000001907348633
610.48433865859079,-5.6999998092651367
611.45614212658984,-2.0999999046325684
612.42775880336558,1.2000000476837158
613.39918872508315,16.200000762939453
614.37043192788951,8.6999998092651367
615.34148844793526,24.100000381469727
616.31235832134917,5.3000001907348633
617.28304158426727,1.5
618.253538272802,-3.2999999523162842
619.2238484230711,11.100000381469727
620.19397207117981,-1.1000000238418579
621.16390925321321,5
622.13366000527276,-8.8999996185302734
623.103224363429,-1.8999999761581421
624.07260236375441,7.6999998092651367
625.04179404231763,7
626.01079943516561,-7.9000000953674316
626.97961857835253,14.199999809265137
627.94825150791621,-5.6999998092651367
628.91669825988356,-7.3000001907348633
629.8849588702833,4.5999999046325684
630.85303337512414,-7.4000000953674316
631.8209218104148,0.699999988079071
632.7886242121549,3
633.75614061633678,-2.2999999523162842
634.72347105893823,-3.5
635.69061557593523,-5.5999999046325684
636.65757420329646,-5
637.6243469769779,-4.0999999046325684
638.59093393293,9.1000003814697266
639.55733510709615,2.9000000953674316
640.5235505354085,-1.2999999523162842
641.48958025379216,-10.199999809265137
642.45542429816669,-2.2999999523162842
643.4210827044426,-19.799999237060547
644.38655550851945,3.0999999046325684
645.351842746295,-11.399999618530273
646.31694445364883,-2.9000000953674316
647.28186066646231,6.6999998092651367
648.24659142060591,-4.5999999046325684
649.21113675193737,0.89999997615814209
650.17549669631444,5.4000000953674316
651.13967128958211,-10.899999618530273
652.10366056757266,4.3000001907348633
653.067464566122,-12.399999618530273
654.03108332104784,-2
654.99451686816428,6.3000001907348633
655.95776524327266,-10.300000190734863
656.920828482178,4.8000001907348633
657.88370662066518,1.5
658.84639969451382,3.7999999523162842
659.80890773950159,-1.7999999523162842
660.77123079139164,0.30000001192092896
661.733368885938,5.9000000953674316
662.69532205889118,-18
663.65709034599786,5.9000000953674316
664.61867378298484,-8.6999998092651367
665.58007240558072,0.40000000596046448
666.54128624949954,-9.8999996185302734
667.50231535045532,5.1999998092651367
668.46315974414392,-3.7999999523162842
669.42381946626119,6.0999999046325684
670.38429455249025,5.6999998092651367
671.34458503851238,-3.5
672.30469095999615,-0.60000002384185791
673.2646123525974,-5.0999999046325684
674.224349251972,7.9000000953674316
675.18390169377017,-8.6999998092651367
676.14326971362243,5.8000001907348633
677.10245334716274,-12.899999618530273
678.0614526300069,-4.5
679.02026759777618,2.7000000476837158
679.97889828607,2.5
680.93734473048789,-2.2999999523162842
681.89560696662011,-0.800000011920929
682.85368503004611,6.8000001907348633
683.81157895634169,4
684.76928878106992,-0.60000002384185791
