-777.87311982425126,4.6500000953674316
-776.63374739947358,7.4000000953674316
-775.39461482227671,0.949999988079071
-774.15572204389719,7.1999998092651367
-772.91706901559337,3.2000000476837158
-771.67865568863454,2.8499999046325684
-770.44048201429,10.25
-769.20254794384346,7.3000001907348633
-767.96485342860433,0.949999988079071
-766.7273984198855,7.8000001907348633
-765.49018286900719,6.6999998092651367
-764.25320672730777,7.1500000953674316
-763.01646994613657,5.5500001907348633
-761.77997247685744,2.7000000476837158
-760.5437142708488,7.5999999046325684
-759.307695279489,2.7999999523162842
-758.07191545417118,8.3500003814697266
-756.83637474631723,5.6999998092651367
-755.601073107342,16.350000381469727
-754.36601048868215,9.3999996185302734
-753.13118684178153,7.5
-751.89660211810587,1.6000000238418579
-750.66225626912092,3
-749.42814924630693,6.3499999046325684
-748.19428100116238,6.5500001907348633
-746.960651485193,5.5500001907348633
-745.72726064991912,-2.6500000953674316
-744.49410844686827,3.2000000476837158
-743.26119482758622,13.350000381469727
-742.02851974362966,8.0500001907348633
-740.79608314656616,3
-739.5638849879706,5.9499998092651367
-738.331925219436,-3.6500000953674316
-737.10020379257367,5.0500001907348633
-735.86872065898388,2.5
-734.63747577031063,1.5
-733.406469078187,8.6000003814697266
-732.17570053426061,-1.1000000238418579
-730.94517009020092,10.050000190734863
-729.71487769768464,7.5500001907348633
-728.48482330838851,5.5
-727.25500687402564,7.0500001907348633
-726.02542834630549,-1.5499999523162842
-724.79608767694481,6.5500001907348633
-723.56698481768581,4.3000001907348633
-722.33811972027434,4.5999999046325684
-721.10949233647079,4.6500000953674316
-719.88110261805014,-1.9500000476837158
-718.652950516791,4.4499998092651367
-717.42503598449366,7.0999999046325684
-716.19735897296232,4.75
-714.96991943401918,3.7000000476837158
-713.74271731949739,3.2000000476837158
-712.515752581241,0.30000001192092896
-711.28902517110146,3.4000000953674316
-710.06253504095184,12.699999809265137
-708.83628214267264,0.85000002384185791
-707.610266428148,9
-706.384487849291,3.0499999523162842
-705.15894635801124,1.2000000476837158
-703.93364190623652,5.75
-702.70857444590911,8.8000001907348633
-701.48374392898586,16.299999237060547
-700.25915030741635,5.3000001907348633
-699.03479353318289,3.9500000476837158
-697.81067355827872,2.2000000476837158
-696.58679033470071,1.2000000476837158
-695.36314381444936,7.5500001907348633
-694.1397339495652,0.550000011920929
-692.91656069207056,4.3000001907348633
-691.69362399401689,3.75
-690.47092380745926,2.2999999523162842
-689.24846008447821,7.0500001907348633
-688.02623277714338,5.0999999046325684
-686.80424183756077,4.6500000953674316
-685.58248721782911,7.8499999046325684
-684.360968870069,3.25
-683.13968674641546,3.75
-681.91864079900733,5.3499999046325684
-680.69783097999425,2.7999999523162842
-679.4772572415477,3.7000000476837158
-678.25691953584283,-4
-677.0368178150693,3.0999999046325684
-675.81695203143136,4.0500001907348633
-674.59732213714051,3.2000000476837158
-673.37792808442282,3.7000000476837158
-672.15876982551163,0.10000000149011612
-670.9398473126621,3.7999999523162842
-669.72116049812939,1.1000000238418579
-668.50270933419051,-0.60000002384185791
-667.28449377312245,4.3000001907348633
-666.0665137672313,1.4500000476837158
-664.84876926881952,5.3499999046325684
-663.63126023020413,2.0499999523162842
-662.413986603724,0.550000011920929
-661.19694834172151,-0.64999997615814209
-659.9801453965465,9.4499998092651367
-658.76357772057054,1.9500000476837158
-657.54724526617247,6.8000001907348633
-656.33114798573843,4.25
-655.11528583168,1.5499999523162842
-653.89965875640155,3.75
-652.68426671233283,2.2000000476837158
-651.46910965191455,6.8499999046325684
-650.25418752759469,5.5
-649.03950029183216,2.2000000476837158
-647.825047897104,3.5
-646.61083029589463,6.6999998092651367
-645.39684744069928,4.5500001907348633
-644.18309928402778,7.1500000953674316
-642.96958577839359,8.1999998092651367
-641.75630687633929,6
-640.54326253040745,2.5
-639.33045269314425,8.3999996185302734
-638.117877317125,-3.6500000953674316
-636.90553635492142,-5.6999998092651367
-635.69342975913059,3.4000000953674316
-634.481557482357,-1.75
-633.26991947720853,5.6500000953674316
-632.05851569631523,0.15000000596046448
-630.84734609231418,13
-629.63641061784983,2.9500000476837158
-628.4257092255848,1
-627.21524186819988,8
-626.00500849836862,7.9499998092651367
-624.79500906879366,6.0999999046325684
-623.58524353217763,-5.5999999046325684
-622.37571184124863,3.0999999046325684
-621.1664139487275,4.6500000953674316
-619.95734980736415,2.0499999523162842
-618.74851936991581,7.8000001907348633
-617.539922589136,2.5499999523162842
-616.33155941781479,-0.44999998807907104
-615.12342980873473,5.3499999046325684
-613.91553371470036,-4.0999999046325684
-612.70787108852346,0
-611.50044188302672,2.0499999523162842
-610.29324605104739,4.3000001907348633
-609.08628354543725,1
-607.87955431905175,5.9499998092651367
-606.67305832475722,11
-605.46679551544912,-0.44999998807907104
-604.26076584400835,1.3500000238418579
-603.05496926335218,9.75
-601.849405726387,2.0999999046325684
-600.64407518604821,5.5999999046325684
-599.438977595275,1.8500000238418579
-598.234112907021,3.1500000953674316
-597.02948107425073,4.0999999046325684
-595.82508204993974,5.3499999046325684
-594.62091578707441,1.8500000238418579
-593.41698223864842,-0.60000002384185791
-592.21328135768454,2.7999999523162842
-591.009813097191,1.3999999761581421
-589.80657741020877,3.9500000476837158
-588.60357424978247,2.8499999046325684
-587.4008035689676,-0.15000000596046448
-586.19826532083425,3.7999999523162842
-584.99595945845977,6.4000000953674316
-583.793885934936,3.3499999046325684
-582.5920447033659,6.6500000953674316
-581.39043571686307,6.3000001907348633
-580.18905892855764,9.6499996185302734
-578.98791429158518,-3.4500000476837158
-577.78700175909034,2.1500000953674316
-576.58632128423778,1.1499999761581421
-575.38587282020308,5.9000000953674316
-574.1856563201618,4
-572.98567173731681,4.6999998092651367
-571.78591902487278,17.5
-570.58639813603986,7.3000001907348633
-569.38710902406274,8.1999998092651367
-568.18805164217156,12.899999618530273
-566.98922594362557,6.75
-565.790631881684,4.6500000953674316
-564.59226940962253,-1.7000000476837158
-563.39413848073127,0.10000000149011612
-562.19623904831133,2.3499999046325684
-560.99857106566742,4.4000000953674316
-559.80113448612792,1.5
-558.60392926301938,0.40000000596046448
-557.40695534968654,0.15000000596046448
-556.21021269949415,0.20000000298023224
-555.0137012658015,8.3500003814697266
-553.81742100199153,-3.0499999523162842
-552.62137186145628,3.0999999046325684
-551.4255537975896,5.4000000953674316
-550.22996676381626,-3
-549.03461071355377,2.75
-547.8394856002451,4.25
-546.64459137733138,-2.0499999523162842
-545.449927998272,1.5499999523162842
-544.25549541654073,2.5499999523162842
-543.06129358562066,0.64999997615814209
-541.86732245900566,6.5500001907348633
-540.67358199019873,6.4000000953674316
-539.48007213271376,4.6999998092651367
-538.28679284007922,1.75
-537.09374406584539,6.9000000953674316
-535.900925763548,-6.6500000953674316
-534.70833788675736,9.5500001907348633
-533.51598038904558,1
-532.32385322399932,4.5
-531.13195634520889,3.4500000476837158
-529.94028970629006,-4.6999998092651367
-528.74885326085314,-1.5499999523162842
-527.55764696253573,4.0999999046325684
-526.36667076497724,8.5500001907348633
-525.17592462183165,-7.0999999046325684
-523.985408486762,3.7999999523162842
-522.79512231344415,-1
-521.60506605556839,9.3500003814697266
-520.41523966682871,1.7000000476837158
-519.22564310093912,7.6999998092651367
-518.0362763116209,-0.60000002384185791
-516.84713925260257,0.800000011920929
-515.65823187763453,-7.25
-514.46955414046715,8.1999998092651367
-513.28110599486718,8.8500003814697266
-512.09288739461954,3.1500000953674316
-510.90489829350736,0
-509.71713864533194,-1.4500000476837158
-508.52960840390369,0.699999988079071
-507.3423075230512,2.1500000953674316
-506.15523595660488,-1.7000000476837158
-504.96839365841697,2.5499999523162842
-503.78178058233607,3.2999999523162842
-502.59539668223624,-0.34999999403953552
-501.4092419119952,9.5500001907348633
-500.223316225507,-1.5
-499.0376195766712,-1.5
-497.85215191940188,10.949999809265137
-496.666913207624,-0.20000000298023224
-495.48190339527719,4.4499998092651367
-494.29712243630638,0.550000011920929
-493.11257028467116,4
-491.928246894342,0.75
-490.7441522193003,0.550000011920929
-489.56028621353471,0.550000011920929
-488.37664883105754,4.9000000953674316
-487.19324002587746,3.2999999523162842
-486.01005975202315,0.60000002384185791
-484.8271079635324,2.5499999523162842
-483.6443846144557,6.8499999046325684
-482.46188965885085,12.800000190734863
-481.27962305079018,-8.8500003814697266
-480.09758474435512,1.75
-478.91577469364165,3.8499999046325684
-477.73419285275304,2.2999999523162842
-476.55283917580709,5.25
-475.37171361693436,5.0999999046325684
-474.19081613026719,0.40000000596046448
-473.010146669958,6.25
-471.82970519017181,4.4499998092651367
-470.64949164507379,1.8999999761581421
-469.46950598885633,-3.1500000953674316
-468.28974817570452,5.9000000953674316
-467.1102181598344,-6.75
-465.93091589545475,-1.7000000476837158
-464.75184133679977,-1.75
-463.57299443810552,8.4499998092651367
-462.39437515362624,-4.4499998092651367
-461.2159834376198,5.0999999046325684
-460.03781924436043,1.3500000238418579
-458.85988252813513,0.20000000298023224
-457.68217324323632,-6.4499998092651367
-456.50469134396917,1
-455.32743678465886,7.1500000953674316
-454.15040951962692,1.7000000476837158
-452.97360950321672,2.9000000953674316
-451.79703668977709,3.9000000953674316
-450.62069103367321,-2.25
-449.4445724892721,0.699999988079071
-448.26868101096989,-0.5
-447.09301655315357,2.0999999046325684
-445.9175790702302,0.20000000298023224
-444.74236851661954,-7.25
-443.56738484675407,12.350000381469727
-442.39262801506811,6.0500001907348633
-441.21809797601236,4.1500000953674316
-440.0437946840575,6.1500000953674316
-438.86971809366878,-2.2999999523162842
-437.69586815933872,5.0500001907348633
-436.52224483555256,4.5500001907348633
-435.34884807682647,-1.1000000238418579
-434.17567783767481,5.0999999046325684
-433.00273407262466,8.75
-431.83001673621948,3.4000000953674316
-430.65752578300453,4.75
-429.4852611675542,-3.3499999046325684
-428.31322284443013,-2.3499999046325684
-427.14141076821943,4.0500001907348633
-425.96982489351649,1.5499999523162842
-424.79846517493388,5.5
-423.62733156708055,1.1499999761581421
-422.45642402459453,5.0999999046325684
-421.28574250211022,1.6499999761581421
-420.1152869542766,-0.34999999403953552
-418.94505733575534,4.6500000953674316
-417.77505360122632,1.2999999523162842
-416.60527570536397,2.5999999046325684
-415.43572360287,-2.8499999046325684
-414.26639724844608,-1.5499999523162842
-413.09729659681216,3.2000000476837158
-411.92842160268992,-2.5999999046325684
-410.7597722208302,13.350000381469727
-409.59134840596926,4.8000001907348633
-408.42315011287792,-1.3500000238418579
-407.2551772963252,-3.9500000476837158
-406.087429911091,-0.34999999403953552
-404.9199079119735,1.5499999523162842
-403.75261125377619,-1.6499999761581421
-402.58553989131542,6.9499998092651367
-401.41869377941293,0.699999988079071
-400.25207287291232,-0.05000000074505806
-399.08567712666627,6.1999998092651367
-397.919506495522,-1.25
-396.75356093436312,1.5
-395.58784039806596,-2.25
-394.42234484151959,6.1500000953674316
-393.25707421963307,3.5999999046325684
-392.09202848732275,-4.1999998092651367
-390.92720759950862,-0.05000000074505806
-389.76261151112521,5.75
-388.59824017713072,-7.25
-387.43409355247422,3.3499999046325684
-386.27017159212846,-0.550000011920929
-385.10647425107527,3.25
-383.94300148430193,1.75
-382.77975324681393,-0.34999999403953552
-381.616729493624,7.1999998092651367
-380.453930179754,-0.64999997615814209
-379.29135526024038,5.9499998092651367
-378.129004690134,7.5
-376.96687842448227,6
-375.80497641835791,7.4499998092651367
-374.64329862683917,1
-373.4818450050152,3.3499999046325684
-372.32061550798426,2.2999999523162842
-371.15961009086277,-4.4499998092651367
-369.99882870877082,4.3000001907348633
-368.83827131683756,5.25
-367.677937870214,1.8500000238418579
-366.51782832404751,1.9500000476837158
-365.3579426335109,0.30000001192092896
-364.19828075377518,0.20000000298023224
-363.03884264003136,1.6499999761581421
-361.87962824747046,7.4000000953674316
-360.7206375313126,1.2000000476837158
-359.56187044677063,4.9499998092651367
-358.403326949081,8.6499996185302734
-357.24500699348027,5.9499998092651367
-356.08691053522307,7.6999998092651367
-354.92903752956954,6.4000000953674316
-353.771387931798,9.9499998092651367
-352.61396169719228,3.7999999523162842
-351.45675878105067,11.050000190734863
-350.29977913867333,16.850000381469727
-349.14302272538407,6.1500000953674316
-347.98648949651215,11.800000190734863
-346.83017940739046,12.050000190734863
-345.67409241337191,7
-344.51822846982031,18.649999618530273
-343.36258753210313,14.899999618530273
-342.20716955560965,18.75
-341.05197449572188,16
-339.89700230785638,14.699999809265137
-338.74225294741518,6.1999998092651367
-337.58772636983667,6.9499998092651367
-336.43342253054652,13.199999809265137
-335.27934138499768,11.699999809265137
-334.12548288865037,12.699999809265137
-332.97184699696481,5.5
-331.81843366542853,14.300000190734863
-330.66524284953266,9.8999996185302734
-329.51227450476654,3.25
-328.35952858665769,9.6999998092651367
-327.20700505071909,13.25
-326.05470385248555,11
-324.90262494750459,12.399999618530273
-323.75076829132558,13
-322.59913383951789,14.199999809265137
-321.44772154765633,16.25
-320.29653137132846,17.799999237060547
-319.14556326613092,15.25
-317.99481718767311,7.5999999046325684
-316.84429309157531,13.199999809265137
-315.69399093346874,12.899999618530273
-314.54391066899007,14.199999809265137
-313.39405225379596,20.25
-312.24441564354129,17.549999237060547
-311.09500079390455,15.800000190734863
-309.94580766056788,19.25
-308.79683619922253,15.050000190734863
-307.64808636558337,21.350000381469727
-306.49955811535619,16.549999237060547
-305.35125140426862,17.950000762939453
-304.203166188061,15.649999618530273
-303.05530242247733,19.600000381469727
-301.90766006327794,22.75
-300.76023906623413,20.850000381469727
-299.61303938712081,19.200000762939453
-298.46606098173288,27.950000762939453
-297.31930380586527,26.200000762939453
-296.17276781533837,31.350000381469727
-295.02645296596893,26
-293.88035921359551,34.25
-292.73448651404942,24.850000381469727
-291.58883482319834,28.850000381469727
-290.44340409690449,34.799999237060547
-289.29819429103554,41.549999237060547
-288.15320536148647,32.150001525878906
-287.0084372641486,38.700000762939453
-285.86388995493689,38.299999237060547
-284.7195633897627,44.349998474121094
-283.57545752455371,44.5
-282.431572315254,48.799999237060547
-281.28790771781496,45.950000762939453
-280.1444636881879,34.049999237060547
-279.00124018235692,52.099998474121094
-277.8582371562934,48.049999237060547
-276.71545456599597,40.849998474121094
-275.57289236746692,56.5
-274.43055051671945,56.950000762939453
-273.28842896977221,52.650001525878906
-272.14652768267115,54.650001525878906
-271.00484661145128,54.549999237060547
-269.86338571217493,51.75
-268.72214494090622,51.150001525878906
-267.581124253722,48.099998474121094
-266.44032360671372,56.700000762939453
-265.29974295597458,52.700000762939453
-264.159382257616,54.75
-263.01924146776037,55.099998474121094
-261.87932054252815,59.150001525878906
-260.73961943807444,52.299999237060547
-259.60013811053796,60.849998474121094
-258.46087651608468,66.800003051757813
-257.32183461088971,64.699996948242188
-256.18301235113358,66.0999984741211
-255.04440969300595,72.550003051757813
-253.90602659271462,70.75
-252.76786300647473,66.300003051757813
-251.62991889051045,71.25
-250.49219420105146,75.5999984741211
-249.35468889435288,80.800003051757813
-248.217402926668,89.699996948242188
-247.08033625425924,78.5
-245.94348883341445,79.8499984741211
-244.80686062040877,90.6500015258789
-243.67045157154826,87.449996948242188
-242.53426164314442,87
-241.39829079150877,91.050003051757813
-240.26253897297829,99.4000015258789
-239.12700614388814,100.5
-237.99169226059348,112.55000305175781
-236.85659727945676,106.55000305175781
-235.72172115684771,112.5
-234.58706384914331,100.55000305175781
-233.4526253127442,106.80000305175781
-232.31840550405468,124.59999847412109
-231.18440437947902,116.90000152587891
-230.05062189545242,135.60000610351563
-228.91705800840282,138.75
-227.78371267477996,144.05000305175781
-226.65058585103725,141.19999694824219
-225.51767749363898,151.64999389648438
-224.38498755906403,153.89999389648438
-223.2525160037967,157.44999694824219
-222.1202627843395,171.14999389648438
-220.98822785719858,179.69999694824219
-219.85641117888918,172.25
-218.7248127059429,190.25
-217.59343239489681,194.05000305175781
-216.46227020230072,201.25
-215.3313260847226,204.05000305175781
-214.20059999872137,209.75
-213.07009190087956,208.85000610351563
-211.9398017477979,220.94999694824219
-210.80972949606621,214.75
-209.67987510230523,219.30000305175781
-208.5502385231357,217.60000610351563
-207.42081971518564,223.60000610351563
-206.29161863510308,213.44999694824219
-205.16263523954149,215.75
-204.03386948516163,219.80000305175781
-202.90532132864428,208.05000305175781
-201.77699072666474,207.75
-200.64887763592742,205.60000610351563
-199.52098201313311,202.35000610351563
-198.39330381500076,200
-197.26584299825117,209.35000610351563
-196.13859951962695,204.05000305175781
-195.01157333587253,187
-193.88476440374143,204.69999694824219
-192.75817268001083,203.05000305175781
-191.63179812144881,200
-190.50564068485255,194.39999389648438
-189.3797003270156,195
-188.25397700474423,218.64999389648438
-187.12847067486291,194.69999694824219
-186.00318129420339,207.44999694824219
-184.87810881960104,216.35000610351563
-183.75325320790944,223.69999694824219
-182.62861441598398,227.35000610351563
-181.50419240070187,233.85000610351563
-180.37998711894033,256.29998779296875
-179.25599852759296,267.39999389648438
-178.13222658356062,271.35000610351563
-177.00867124376236,288.10000610351563
-175.88533246510815,303.20001220703125
-174.76221020454068,337.95001220703125
-173.63930441900084,361
-172.51661506544224,409.45001220703125
-171.39414210082759,412.04998779296875
-170.27188548212871,450.79998779296875
-169.14984516633558,489.89999389648438
-168.02802111043638,513.04998779296875
-166.90641327144112,553.3499755859375
-165.78502160636344,558.3499755859375
-164.66384607223154,591.5999755859375
-163.54288662607541,604.1500244140625
-162.4221432249451,620.45001220703125
-161.30161582589426,618.6500244140625
-160.18130438598928,627.9000244140625
-159.06120886230929,633.8499755859375
-157.94132921194432,639.0999755859375
-156.82166539198624,648.45001220703125
-155.70221735953965,635.54998779296875
-154.58298507173095,656
-153.46396848568111,660.45001220703125
-152.34516755853474,652.70001220703125
-151.22658224743282,683.79998779296875
-150.10821250953813,689.04998779296875
-148.99005830202077,717.75
-147.87211958205626,724.95001220703125
-146.75439630683832,737.3499755859375
-145.63688843355885,754.8499755859375
-144.51959591943705,798.9000244140625
-143.40251872168847,829.95001220703125
-142.28565679753956,840.4000244140625
-141.16901010423499,908.20001220703125
-140.05257859902849,911.20001220703125
-138.93636223917383,949.9000244140625
-137.82036098194294,995.25
-136.70457478462595,1031.6500244140625
-135.58900360449843,1061.699951171875
-134.47364739887416,1098.550048828125
-133.35850612506329,1138.949951171875
-132.24357974038321,1160.300048828125
-131.12886820217136,1221.800048828125
-130.01437146776334,1249.449951171875
-128.90008949451476,1300.199951171875
-127.78602223979033,1339.6500244140625
-126.67216966095839,1369.75
-125.55853171540366,1430.449951171875
-124.44510836051813,1470.199951171875
-123.33189955371017,1529.199951171875
-122.2189052523845,1556.949951171875
-121.10612541397313,1603.5999755859375
-119.9935599959008,1636
-118.88120895561769,1656.5999755859375
-117.76907225057403,1660.5999755859375
-116.65714983823818,1708.75
-115.54544167607855,1739.199951171875
-114.43394772158354,1780.1500244140625
-113.32266793224335,1799.800048828125
-112.21160226556458,1815.75
-111.10075067906291,1861.8499755859375
-109.99011313026131,1896.3499755859375
-108.87968957669545,1931.8499755859375
-107.76947997590833,1953.9000244140625
-106.65948428545926,1985.5
-105.54970246290759,2037.4000244140625
-104.44013446582903,2096.64990234375
-103.33078025181567,2099.39990234375
-102.22163977845048,2145.050048828125
-101.11271300335284,2237.300048828125
-100.00399988412755,2289.25
-98.8955003784049,2308.199951171875
-97.787214443818812,2366.85009765625
-96.679142038015925,2416.14990234375
-95.571283118651991,2542.39990234375
-94.46363764339003,2652.60009765625
-93.356205569909434,2731.050048828125
-92.248986855895055,2840.300048828125
-91.141981459042654,2928.60009765625
-90.035189337055272,3028.60009765625
-88.928610447654137,3029.949951171875
-87.8222447485623,2979.85009765625
-86.716092197515536,3014.949951171875
-85.610152752264185,2995.800048828125
-84.504426370558576,2986.449951171875
-83.3989130101636,3024.800048828125
-82.29361262886232,3018.89990234375
-81.188525184439641,3020.300048828125
-80.083650634691367,3056.199951171875
-78.978988937416943,3083.699951171875
-77.8745400504431,3157.300048828125
-76.7703039315893,3328.75
-75.666280538693172,3487.85009765625
-74.56246982959965,3631.60009765625
-73.45887176217002,3763.949951171875
-72.355486294265575,3867.10009765625
-71.2523133837658,3960
-70.149352988557439,3913.949951171875
-69.046605066534539,3901.300048828125
-67.944069575602043,3838.050048828125
-66.84174647367945,3795.75
-65.739635718693535,3791.64990234375
-64.63773726857471,3746.60009765625
-63.5360510812734,3813.39990234375
-62.434577114750937,3966.85009765625
-61.3333153269632,4121.89990234375
-60.232265675895178,4361.5498046875
-59.131428119522752,4712.75
-58.030802615854554,5232.7998046875
-56.930389122886481,5693.5
-55.830187598636257,6240.4501953125
-54.730198001132521,6478.5498046875
-53.630420288413006,6560.2998046875
-52.530854418515446,6434.75
-51.431500349504859,6155.7001953125
-50.332358039440805,6060.2998046875
-49.233427446402857,6191.7998046875
-48.134708528470583,6655.39990234375
-47.036201243741743,7650
-45.937905550323194,9098.2001953125
-44.839821406334522,10850.5498046875
-43.74194876988804,12588.9501953125
-42.64428759913244,13943.0498046875
-41.5468378522055,14602.4501953125
-40.449599487265004,15117.9501953125
-39.352572462472381,15507.9501953125
-38.255756736005424,15789.9501953125
-37.159152266047386,15977.25
-36.062759010790614,15335.400390625
-34.966576928443828,13893.75
-33.8706059772212,12777.2001953125
-32.774846115338732,12000.5
-31.679297301039696,12944.849609375
-30.583959492563736,15782.849609375
-29.488832648166863,19907.650390625
-28.393916726110547,23145.05078125
-27.299211684672628,23344.349609375
-26.204717482129126,20796.44921875
-25.110434076774254,16164.5498046875
-24.016361426916774,12720.4501953125
-22.922499490865448,10865.5
-21.828848226945411,9912.25
-20.735407593489072,9138
-19.642177548834297,8571.2001953125
-18.549158051340783,7839.2998046875
-17.456349059368222,7469.85009765625
-16.363750531281767,7319.14990234375
-15.271362425470215,7333.7998046875
-14.179184700326005,7351.60009765625
-13.087217314247027,7510.25
-11.995460225642091,7555.10009765625
-10.903913392940012,7747.14990234375
-9.8125767745696066,7971.35009765625
-8.7214503289651475,8191.89990234375
-7.6305340145827358,8442.400390625
-6.5398277898821107,8479.5
-5.4493316133357439,7387.75
-4.3590454434179264,5176.64990234375
-3.26896923861932,2721.75
-2.1791029574433196,1020.9500122070313
-1.0894465583987767,554.8499755859375
-3.637978807091713E-12,540.8499755859375
1.0892367592168739,1139.300048828125
2.1782637607157085,2731.85009765625
3.2670810459494533,4889.7001953125
4.3556886563619628,7283.5498046875
5.4440866333861777,8272.650390625
6.5322750184368488,8293.400390625
7.6202538529305457,8112.89990234375
8.7080231782692863,7749.60009765625
9.7955830358478124,7578.39990234375
10.882933467048133,7532.14990234375
11.970074513241343,7353.5
13.0570062157949,7350.4501953125
14.143728616063527,7324.14990234375
15.230241755389216,7371.10009765625
16.316545675103043,7423.35009765625
17.402640416532449,7731.35009765625
18.488526020995778,8342.7001953125
19.574202529791364,9020.150390625
20.659669984221182,9829.099609375
21.744928425567196,10816
22.82997789510955,12284.349609375
23.914818434106564,15349.7001953125
24.99945008382565,19754.30078125
26.083872885503297,23543.25
27.168086880381452,25060.05078125
28.252092109691148,23074.5
29.33588861464159,18712.69921875
30.419476436449258,14526.5498046875
31.502855616305169,12951.349609375
32.586026195402155,13120
33.668988214920319,14379.5
34.751741716028846,15994.599609375
35.834286739884192,16955.55078125
36.916623327637353,17261.05078125
37.998751520428414,17198.849609375
39.080671359392,16698.849609375
40.162382885640909,16438.599609375
41.243886140291579,15910.2001953125
42.325181164447713,14944.349609375
43.406267999200281,13259.4501953125
44.4871466856257,11291
45.5678172648004,9408.849609375
46.648279777786229,8065.60009765625
47.72853426563961,7255.75
48.8085807694024,6923
49.888419330107354,6899.5
50.968049988779967,7180.85009765625
52.047472786436629,7385.10009765625
53.126687764075541,7583.35009765625
54.205694962698544,7459.64990234375
55.284494423289289,7168.5
56.363086186827786,6647.7001953125
57.44147029427404,6068.25
58.519646786589874,5588.0498046875
59.597615704718919,5178.7001953125
60.67537708960117,4958.7998046875
61.752930982163889,4835.5498046875
62.83027742332888,4716.5
63.90741645399612,4657.7998046875
64.984348115074681,4663.9501953125
66.061072447448169,4789.35009765625
67.13758949199655,4842.5
68.213899289597975,4938.0498046875
69.29000188109967,5086.4501953125
70.36589730736705,5033.35009765625
71.441585609234608,4944.35009765625
72.517066827535018,4873.89990234375
73.592341003088222,4694.2001953125
74.667408176715981,4474.14990234375
75.742268389207311,4298.35009765625
76.816921681369422,4178.25
77.891368093980418,4051.75
78.965607667816585,3991.550048828125
80.039640443639655,3977.14990234375
81.113466462209544,3986.550048828125
82.187085764271615,3985.85009765625
83.260498390560315,4011.85009765625
84.333704381804637,3968.550048828125
85.40670377871902,3998.85009765625
86.479496622014267,3981.050048828125
87.552082952388446,4069.699951171875
88.624462810528712,4057.699951171875
89.6966362371113,4073.10009765625
90.76860327281247,3975.35009765625
91.840363958286616,3814.699951171875
92.911918334189977,3770.050048828125
93.983266441158776,3610.25
95.054408319829236,3497.050048828125
96.12534401081939,3444.10009765625
97.19607355474,3323.199951171875
98.2665969922,3294.949951171875
99.336914363786491,3229.89990234375
100.40702571009024,3182.199951171875
101.47693107168197,3181.949951171875
102.54663048912334,3087.550048828125
103.61612400297781,3061.89990234375
104.68541165378701,3029.199951171875
105.75449348208713,2967.949951171875
106.82336952840706,2907.050048828125
107.89203983326297,2873
108.96050443715831,2841.800048828125
110.02876338060378,2796.699951171875
111.09681670407736,2752.39990234375
112.16466444806247,2717.60009765625
113.23230665302981,2669.199951171875
114.2997433594428,2667.64990234375
115.36697460774849,2634.25
116.43400043838665,2588
117.50082089179705,2557.949951171875
118.56743600839945,2498.949951171875
119.63384582860272,2464.550048828125
120.70005039281386,2392.39990234375
121.76604974143083,2323.300048828125
122.83184391483519,2304.800048828125
123.89743295340486,2236.25
124.96281689750322,2216
126.02799578748636,2104.35009765625
127.09296966370857,2056.60009765625
128.15773856649867,1972.0999755859375
129.22230253619455,1940.699951171875
130.28666161311048,1876.050048828125
131.35081583755345,1806.4000244140625
132.414765249825,1733.1500244140625
133.47850989022481,1681
134.54204979901988,1633.6500244140625
135.60538501649535,1603.0999755859375
136.66851558290364,1507.699951171875
137.73144153850444,1482.3499755859375
138.79416292353926,1427.050048828125
139.85667977824414,1389.699951171875
140.91899214284422,1316.300048828125
141.9811000575537,1299.050048828125
143.0430035625759,1257.050048828125
144.10470269811231,1224.800048828125
145.16619750435348,1169.050048828125
146.22748802146998,1144.3499755859375
147.28857428963602,1138.050048828125
148.3494563490076,1111.300048828125
149.41013423973891,1092.199951171875
150.47060800196778,1075.550048828125
151.53087767582292,1049.4000244140625
152.59094330143125,1047.5
153.65080491890512,1056.949951171875
154.71046256834779,1028.1500244140625
155.76991628984433,1036.199951171875
156.82916612349436,1043.4000244140625
157.88821210936294,1050.6500244140625
158.94705428751695,1050.199951171875
160.00569269801963,1030.699951171875
161.06412738090876,1042.199951171875
162.12235837622939,1020.7999877929688
163.18038572400837,1010.8499755859375
164.23820946425803,977
165.29582963700341,941.95001220703125
166.35324628222952,893.95001220703125
167.41045943993777,865.0999755859375
168.4674691501059,817.45001220703125
169.52427545270439,784.70001220703125
170.58087838770371,732.8499755859375
171.63727799505432,664.54998779296875
172.6934743146976,618.20001220703125
173.74946738657491,598.70001220703125
174.80525725060761,551.45001220703125
175.86084394671525,511.85000610351563
176.91622751480463,499.04998779296875
177.97140799477529,461.79998779296875
179.02638542651403,463.85000610351563
180.08115984989854,443
181.13573130480836,421.5
182.1900998310939,407.04998779296875
183.24426546861469,390.35000610351563
184.29822825721203,387.29998779296875
185.35198823671635,374.64999389648438
186.40554544695078,380.75
187.45889992773846,358.70001220703125
188.51205171887523,365.70001220703125
189.5650008601624,356.29998779296875
190.61774739138855,356.29998779296875
191.67029135232588,361.70001220703125
192.72263278274659,355.54998779296875
193.77477172241379,350.35000610351563
194.82670821106694,360.60000610351563
195.87844228846188,350.85000610351563
196.92997399431806,366.25
197.98130336836039,375.04998779296875
199.03243045030285,374.14999389648438
200.083355279854,376.95001220703125
201.13407789669873,381.54998779296875
202.18459834053465,391.20001220703125
203.23491665102665,383.60000610351563
204.28503286785053,379.10000610351563
205.33494703066026,390.45001220703125
206.38465917910617,395.25
207.43416935282403,384.89999389648438
208.48347759144417,388.29998779296875
209.53258393459691,392.60000610351563
210.58148842188348,391.89999389648438
211.63019109291054,383.70001220703125
212.67869198727021,375.25
213.726991144551,378.85000610351563
214.775088604325,373.04998779296875
215.82298440615341,373.5
216.8706785896029,363.35000610351563
217.91817119421466,356.60000610351563
218.96546225952443,351.54998779296875
220.01255182506975,346.64999389648438
221.05943993036635,334.14999389648438
222.10612661491905,326.25
223.15261191823993,305.95001220703125
224.19889587981743,308.75
225.24497853913635,299.39999389648438
226.29085993566514,282.14999389648438
227.33654010887221,280.04998779296875
228.38201909822055,270.29998779296875
229.42729694314221,266.89999389648438
230.47237368309288,256.5
231.51724935748462,246.30000305175781
232.56192400574764,243.05000305175781
233.60639766728673,235.60000610351563
234.65067038150482,239.30000305175781
235.69474218779396,223.39999389648438
236.73861312553527,217.94999694824219
237.78228323410804,215
238.82575255286974,208.14999389648438
239.86902112117787,211.55000305175781
240.9120889783826,206.35000610351563
241.95495616381777,202.55000305175781
242.99762271681357,192.60000610351563
244.04008867668745,204.35000610351563
245.08235408274959,179.89999389648438
246.1244189743029,189
247.16628339063755,188.35000610351563
248.20794737103279,187.10000610351563
249.24941095476788,177.85000610351563
250.29067418110571,177.30000305175781
251.33173708930008,177.14999389648438
252.37259971859567,161.10000610351563
253.41326210823536,153.69999694824219
254.45372429744384,160.89999389648438
255.49398632544035,142
256.53404823143683,149.5
257.57391005463069,146.19999694824219
258.61357183421751,136
259.65303360938196,139.39999389648438
260.69229541928871,143.55000305175781
261.73135730310787,142.30000305175781
262.77021929999864,130.30000305175781
263.80888144910386,127.09999847412109
264.84734378955909,129.60000610351563
265.88560636049988,125.65000152587891
266.92366920103996,123.25
267.9615323502876,121.75
268.99919584735289,113.30000305175781
270.03665973132047,107.5
271.07392404127677,115.19999694824219
272.1109888162955,126.25
273.14785409544129,121.90000152587891
274.18451991776965,115
275.22098632233428,114.30000305175781
276.25725334816525,108.30000305175781
277.29332103429442,112.09999847412109
278.32918941974458,108.30000305175781
279.36485854352395,107.44999694824219
280.40032844463531,105.5
281.43559916207232,103.94999694824219
282.4706707348214,98.5999984741211
283.50554320185074,95.6500015258789
284.540216602134,92
285.57469097462854,96
286.60896635827521,90.550003051757813
287.6430427920186,87.949996948242188
288.67692031479055,80.1500015258789
289.71059896550651,87.5
290.74407878308375,80.5
291.777359806425,70.1500015258789
292.81044207441846,73.050003051757813
293.84332562596137,77.5999984741211
294.87601049991827,60.849998474121094
295.90849673516095,73.1500015258789
296.94078437055396,68.949996948242188
297.97287344493816,70.449996948242188
299.00476399715808,62.25
300.03645606604368,67.300003051757813
301.06794969041584,59.549999237060547
302.09924490909361,59.5
303.13034176088149,59.049999237060547
304.16124028456943,59.5
305.1919405189492,52.950000762939453
306.222442502798,48.150001525878906
307.25274627488216,51.049999237060547
308.2828518739625,46.75
309.31275933879624,44.700000762939453
310.34246870811512,55.849998474121094
311.37198002066361,50.099998474121094
312.40129331515891,58.349998474121094
313.43040863031638,52.549999237060547
314.45932600484593,43.299999237060547
315.48804547744476,48.700000762939453
316.51656708679729,56.900001525878906
317.54489087158618,48.150001525878906
318.57301687048675,45
319.60094512215619,54.700000762939453
320.62867566524437,39.849998474121094
321.65620853840483,42.049999237060547
322.68354378026197,41.599998474121094
323.71068142945296,40.150001525878906
324.73762152458949,42
325.76436410428141,46
326.79090920712588,32.049999237060547
327.81725687171638,34.349998474121094
328.84340713663732,30.899999618530273
329.86936004045674,31.149999618530273
330.8951156217463,28.850000381469727
331.92067391905039,35.349998474121094
332.9460349709243,30.899999618530273
333.97119881590334,35.099998474121094
334.99616549251732,29.899999618530273
336.02093503928518,40.950000762939453
337.04550749471673,36.5
338.06988289731453,45.799999237060547
339.09406128557566,54.099998474121094
340.11804269798085,53.950000762939453
341.14182717300719,58.549999237060547
342.16541474912265,60.049999237060547
343.18880546478249,55.75
344.21199935844015,48.400001525878906
345.23499646853088,48.349998474121094
346.25779683349174,40.400001525878906
347.2804004917416,44.25
348.30280748169571,30.5
349.3250178417602,44
350.34703161032849,29.049999237060547
351.36884882579034,33.599998474121094
352.39046952652461,25.649999618530273
353.41189375090107,26.200000762939453
354.43312153727675,24.450000762939453
355.45415292401049,20.25
356.47498794944113,24.149999618530273
357.49562665190388,20.5
358.51606906973029,24.700000762939453
359.53631524122466,16.200000762939453
360.55636520471126,15.300000190734863
361.576218998478,24.850000381469727
362.59587666081825,23.899999618530273
363.6153382300181,16.350000381469727
364.63460374434362,22.799999237060547
365.65367324206454,20.799999237060547
366.67254676143239,19.399999618530273
367.69122434069686,21.5
368.70970601810041,16.549999237060547
369.7279918318618,13
370.74608182021075,14.550000190734863
371.7639760213533,16.299999237060547
372.78167447349733,17.649999618530273
373.79917721483071,8.3999996185302734
374.81648428354674,14.350000381469727
375.8335957178133,17.649999618530273
376.85051155580732,9.75
377.86723183568211,12.600000381469727
378.88375659558915,16.299999237060547
379.90008587367265,18.149999618530273
380.91621970806045,20.149999618530273
381.932158136884,14.600000381469727
382.94790119825484,24.649999618530273
383.96344893028072,20.649999618530273
384.97880137105676,11.5
385.99395855867624,16.75
387.0089205312197,8.6000003814697266
388.02368732675495,17.100000381469727
389.03825898334981,10.75
390.05263553905752,3.8499999046325684
391.06681703192226,8.5500001907348633
392.08080349998454,14.699999809265137
393.09459498126671,12.850000381469727
394.10819151379292,16.75
395.12159313558004,7.4499998092651367
396.13479988461768,16.200000762939453
397.14781179890815,12.449999809265137
398.16062891643014,11.850000381469727
399.17325127516779,10.5
400.18567891308157,16.049999237060547
401.19791186813563,14.800000190734863
402.20995017827954,15
403.22179388145014,10.699999809265137
404.23344301558427,13.050000190734863
405.24489761860423,12.25
406.256157728425,14.649999618530273
407.26722338295986,12.899999618530273
408.27809462009827,14.449999809265137
409.28877147773528,6.6500000953674316
410.29925399374588,12.550000190734863
411.30954220601052,17.399999618530273
412.31963615238783,7.4499998092651367
413.3295358707328,10.050000190734863
414.33924139889314,14.300000190734863
415.348752774702,2.5
416.35807003599439,10.399999618530273
417.36719322058889,6.4000000953674316
418.3761223662932,18.350000381469727
419.38485751091685,14.050000190734863
420.39339869224932,14.899999618530273
421.4017459480765,13.649999618530273
422.4098993161806,6.0500001907348633
423.41785883432567,11.699999809265137
424.42562454027211,3.9500000476837158
425.43319647177304,8.6999998092651367
426.44057466656886,9.5
427.44775916239269,15.199999809265137
428.45474999697581,5.6500000953674316
429.46154720802588,14.149999618530273
430.46815083326146,10.050000190734863
431.474560910372,5.1999998092651367
432.48077747705611,10.949999809265137
433.48680057099773,14.600000381469727
434.4926302298627,4.8499999046325684
435.49826649132046,11.350000381469727
436.50370939302593,10
437.50895897263217,9.4499998092651367
438.5140152677759,-0.949999988079071
439.51887831608292,11.550000190734863
440.52354815518265,15.25
441.52802482268817,5.8000001907348633
442.532308356198,6
443.53639879331604,14.050000190734863
444.54029617162814,3.75
445.54400052871461,10.050000190734863
446.54751190214483,3.7000000476837158
447.55083032947732,12.300000190734863
448.553955848276,4.75
449.55688849607577,12.5
450.55962831042052,14.050000190734863
451.56217532883238,7.1500000953674316
452.56452958883892,10.350000381469727
453.56669112794589,9.6499996185302734
454.56865998365174,9.8999996185302734
455.57043619345859,14
456.57201979484853,5.5500001907348633
457.57341082529638,-1.75
458.57460932227514,13.300000190734863
459.57561532323962,4.9499998092651367
460.57642886564281,9.8500003814697266
461.57704998692861,2.2999999523162842
462.57747872453183,9.8500003814697266
463.57771511587816,4.5500001907348633
464.57775919838059,14.300000190734863
465.5776110094539,-0.30000001192092896
466.57727058649289,7.1500000953674316
467.57673796689414,12.050000190734863
468.5760131880379,0.60000002384185791
469.57509628729895,8.8500003814697266
470.57398730204477,10.199999809265137
471.57268626963196,7.6999998092651367
472.57119322740982,2.5999999046325684
473.56950821272039,10.699999809265137
474.56763126289479,2.1500000953674316
475.56556241525323,3.9500000476837158
476.56330170711954,5.9499998092651367
477.5608491757921,10.600000381469727
478.55820485857475,5.1999998092651367
479.55536879275314,7.5999999046325684
480.55234101561109,4.5
481.54912156442151,10.899999618530273
482.54571047644822,1.2000000476837158
483.54210778894412,11.899999618530273
484.5383135391603,-1.3999999761581421
485.53432776433874,7.25
486.53015050170507,5.8499999046325684
487.52578178848125,5.5999999046325684
488.521221661882,10.149999618530273
489.51647015911294,4.0500001907348633
490.511527317376,9.3500003814697266
491.50639317384957,6.1500000953674316
492.50106776571556,3.2999999523162842
493.49555113015049,8.1000003814697266
494.48984330431631,3.4000000953674316
495.48394432536406,6.6999998092651367
496.477854230443,2.75
497.47157305668588,7.1500000953674316
498.46510084122747,-1.1000000238418579
499.45843762119148,4.3000001907348633
500.45158343368166,5.6500000953674316
501.44453831580358,6.4000000953674316
502.43730230465735,2.0999999046325684
503.4298754373267,4.4000000953674316
504.42225775089173,5.4000000953674316
505.41444928242527,1.6499999761581421
506.40645006898194,-0.10000000149011612
507.39826014762366,0.34999999403953552
508.38987955538869,6.9499998092651367
509.38130832932075,3.9500000476837158
510.3725465064399,10
511.36359412377169,10.649999618530273
512.35445121832345,5.5999999046325684
513.345117827108,9.5
514.33559398710713,9.6499996185302734
515.32587973531554,-2.2000000476837158
516.31597510870961,7.4000000953674316
517.305880144253,4.1999998092651367
518.29559487891856,9.9499998092651367
519.2851193496499,-3.3499999046325684
520.27445359339254,6.25
521.2635976470865,-2.2000000476837158
522.25255154765728,1.0499999523162842
523.24131533202308,-1.3999999761581421
524.22988903709665,0.15000000596046448
525.21827269978348,4.0999999046325684
526.20646635697267,5.0999999046325684
527.19447004554968,3.0999999046325684
528.18228380239634,3.9500000476837158
529.16990766437993,2
530.15734166836046,0.15000000596046448
531.14458585119428,4.3499999046325684
532.13164024971957,2.2999999523162842
533.11850490077813,7.5
534.1051798411936,-4.1999998092651367
535.09166510778778,6.1999998092651367
536.0779607373679,-0.15000000596046448
537.06406676674123,-4.5
538.04998323269865,-4.8000001907348633
539.03571017202739,0.44999998807907104
540.02124762150379,-5.3499999046325684
541.00659561790053,6.5
541.99175419797393,-1.5
542.97672339848032,7
543.96150325615963,-0.949999988079071
544.94609380775364,0.5
545.93049508998593,8.6999998092651367
546.91470713957824,0.20000000298023224
547.89872999324143,12
548.88256368767543,5
549.86620825957834,-2.7000000476837158
550.84966374563555,7.6999998092651367
551.83293018252334,-3.1500000953674316
552.81600760691072,0.550000011920929
553.79889605546123,-6.8499999046325684
554.78159556482933,4.4499998092651367
555.76410617165857,-3.8499999046325684
556.74642791258339,4.0999999046325684
557.72856082423277,5.3499999046325684
558.71050494323026,0.699999988079071
559.692260306183,5.8000001907348633
560.67382694969274,5.4000000953674316
561.65520491036477,12
562.63639422477536,5.9000000953674316
563.617394929508,17.649999618530273
564.59820706113169,30
565.5788306562099,53.75
566.55926575129524,66.550003051757813
567.53951238293848,71.800003051757813
568.51957058766675,58.650001525878906
569.49944040201626,34.400001525878906
570.47912186250869,18.600000381469727
571.45861500565115,13.649999618530273
572.43791986795441,5.9000000953674316
573.417036485911,9.4499998092651367
574.3959648960099,9.1000003814697266
575.37470513472908,10.399999618530273
576.35325723854476,0.15000000596046448
577.3316212439131,5
578.309797187294,3.7999999523162842
579.28778510513439,2.4000000953674316
580.26558503387241,9.8000001907348633
581.24319700993874,7.6999998092651367
582.22062106975318,-0.949999988079071
583.1978572497319,10.850000381469727
584.17490558627833,-1.75
585.15176611579591,1.7999999523162842
586.12843887466624,9.8999996185302734
587.1049238992764,1.5499999523162842
588.08122122599343,2.9000000953674316
589.05733089119167,-4.5999999046325684
590.03325293122,9.3999996185302734
591.00898738242722,4.6999998092651367
591.98453428115681,2.9000000953674316
592.95989366373578,10.149999618530273
593.93506556649481,3.9000000953674316
594.91005002574457,8.25
595.88484707779207,3.1500000953674316
596.85945675894072,6.75
597.83387910547935,-3.8499999046325684
598.808114153695,6
599.78216193985281,1.1499999761581421
600.7560225002253,1.3999999761581421
601.729695871074,2.5
602.70318208864228,4.4000000953674316
603.67648118917714,8.9499998092651367
604.64959320891285,-4
605.62251818407458,-3.5
606.59525615087659,7.0500001907348633
607.56780714553315,0.550000011920929
608.54017120424214,6.9000000953674316
609.51234836320145,1.8500000238418579
610.48433865859079,6.6999998092651367
611.45614212658984,8.3000001907348633
612.42775880336558,6.5999999046325684
613.39918872508315,8.25
614.37043192788951,7.5500001907348633
615.34148844793526,5.25
616.31235832134917,8.5500001907348633
617.28304158426727,3.5499999523162842
618.253538272802,11.649999618530273
619.2238484230711,6.8499999046325684
620.19397207117981,-0.550000011920929
621.16390925321321,4.1500000953674316
622.13366000527276,5.0999999046325684
623.103224363429,-1.0499999523162842
624.07260236375441,0.25
625.04179404231763,12.050000190734863
626.01079943516561,-2.6500000953674316
626.97961857835253,5.9000000953674316
627.94825150791621,3
628.91669825988356,2
629.8849588702833,1.5
630.85303337512414,0.89999997615814209
631.8209218104148,0
632.7886242121549,3.0999999046325684
633.75614061633678,-1.25
634.72347105893823,2.25
635.69061557593523,-0.550000011920929
636.65757420329646,1.8999999761581421
637.6243469769779,4.9000000953674316
638.59093393293,-0.34999999403953552
639.55733510709615,-3
640.5235505354085,13.550000190734863
641.48958025379216,-1.5499999523162842
642.45542429816669,-0.75
643.4210827044426,-0.800000011920929
644.38655550851945,6.0999999046325684
645.351842746295,-6.25
646.31694445364883,7.5999999046325684
647.28186066646231,-1.2000000476837158
648.24659142060591,8.6499996185302734
649.21113675193737,4.3000001907348633
650.17549669631444,-1.5
651.13967128958211,8
652.10366056757266,2
653.067464566122,0.5
654.03108332104784,4.3499999046325684
654.99451686816428,4.75
655.95776524327266,4.5
656.920828482178,-1.6000000238418579
657.88370662066518,-4
658.84639969451382,8.9499998092651367
659.80890773950159,-4.9499998092651367
660.77123079139164,4.9499998092651367
661.733368885938,4.1999998092651367
662.69532205889118,-0.25
663.65709034599786,-4
664.61867378298484,-3.6500000953674316
665.58007240558072,6.6999998092651367
666.54128624949954,5.3499999046325684
667.50231535045532,0.05000000074505806
668.46315974414392,-2.5999999046325684
669.42381946626119,-2.8499999046325684
670.38429455249025,2.5499999523162842
671.34458503851238,2.8499999046325684
672.30469095999615,-5.3499999046325684
673.2646123525974,10.149999618530273
674.224349251972,5.1999998092651367
675.18390169377017,0.60000002384185791
676.14326971362243,6.1999998092651367
677.10245334716274,2.1500000953674316
678.0614526300069,-0.75
679.02026759777618,-3.0999999046325684
679.97889828607,-2
680.93734473048789,-0.5
681.89560696662011,-2.5
682.85368503004611,-0.15000000596046448
683.81157895634169,-2.8499999046325684
684.76928878106992,-0.550000011920929
