-777.87311982425126,76
-776.63374739947358,74.5
-775.39461482227671,73
-774.15572204389719,89.5
-772.91706901559337,75.5
-771.67865568863454,93.5
-770.44048201429,79
-769.20254794384346,62.5
-767.96485342860433,75.5
-766.7273984198855,97
-765.49018286900719,86
-764.25320672730777,85.5
-763.01646994613657,103
-761.77997247685744,79.5
-760.5437142708488,107.5
-759.307695279489,123.5
-758.07191545417118,71.5
-756.83637474631723,110.5
-755.601073107342,96.5
-754.36601048868215,116.5
-753.13118684178153,91.5
-751.89660211810587,75
-750.66225626912092,87
-749.42814924630693,93.5
-748.19428100116238,94.5
-746.960651485193,99
-745.72726064991912,89.5
-744.49410844686827,98.5
-743.26119482758622,100.5
-742.02851974362966,111.5
-740.79608314656616,107.5
-739.5638849879706,97.5
-738.331925219436,77.5
-737.10020379257367,96.5
-735.86872065898388,101.5
-734.63747577031063,119
-733.406469078187,101
-732.17570053426061,106.5
-730.94517009020092,93.5
-729.71487769768464,110
-728.48482330838851,93
-727.25500687402564,96
-726.02542834630549,123
-724.79608767694481,67.5
-723.56698481768581,129.5
-722.33811972027434,91.5
-721.10949233647079,126
-719.88110261805014,113
-718.652950516791,116
-717.42503598449366,108.5
-716.19735897296232,76
-714.96991943401918,86.5
-713.74271731949739,120
-712.515752581241,83.5
-711.28902517110146,124.5
-710.06253504095184,107.5
-708.83628214267264,103
-707.610266428148,97.5
-706.384487849291,104
-705.15894635801124,100.5
-703.93364190623652,109.5
-702.70857444590911,122
-701.48374392898586,112
-700.25915030741635,114
-699.03479353318289,111.5
-697.81067355827872,98.5
-696.58679033470071,101
-695.36314381444936,107
-694.1397339495652,113
-692.91656069207056,115.5
-691.69362399401689,109
-690.47092380745926,91
-689.24846008447821,125.5
-688.02623277714338,124
-686.80424183756077,109.5
-685.58248721782911,105
-684.360968870069,116.5
-683.13968674641546,118
-681.91864079900733,110.5
-680.69783097999425,111.5
-679.4772572415477,135
-678.25691953584283,92
-677.0368178150693,129.5
-675.81695203143136,120.5
-674.59732213714051,124.5
-673.37792808442282,111
-672.15876982551163,130.5
-670.9398473126621,107
-669.72116049812939,105
-668.50270933419051,118
-667.28449377312245,140
-666.0665137672313,126
-664.84876926881952,143.5
-663.63126023020413,101
-662.413986603724,120
-661.19694834172151,120.5
-659.9801453965465,115
-658.76357772057054,122
-657.54724526617247,116
-656.33114798573843,134.5
-655.11528583168,106.5
-653.89965875640155,118
-652.68426671233283,129.5
-651.46910965191455,131
-650.25418752759469,133.5
-649.03950029183216,97
-647.825047897104,127
-646.61083029589463,112.5
-645.39684744069928,112.5
-644.18309928402778,127
-642.96958577839359,106
-641.75630687633929,131.5
-640.54326253040745,117
-639.33045269314425,111.5
-638.117877317125,172
-636.90553635492142,120
-635.69342975913059,131
-634.481557482357,113.5
-633.26991947720853,131.5
-632.05851569631523,129.5
-630.84734609231418,91.5
-629.63641061784983,110.5
-628.4257092255848,149.5
-627.21524186819988,126
-626.00500849836862,123.5
-624.79500906879366,119.5
-623.58524353217763,139.5
-622.37571184124863,140
-621.1664139487275,117.5
-619.95734980736415,107.5
-618.74851936991581,112.5
-617.539922589136,130
-616.33155941781479,127
-615.12342980873473,132.5
-613.91553371470036,117
-612.70787108852346,121.5
-611.50044188302672,150
-610.29324605104739,141.5
-609.08628354543725,135
-607.87955431905175,147.5
-606.67305832475722,117.5
-605.46679551544912,152
-604.26076584400835,151
-603.05496926335218,110
-601.849405726387,127.5
-600.64407518604821,124.5
-599.438977595275,146.5
-598.234112907021,126
-597.02948107425073,126.5
-595.82508204993974,138.5
-594.62091578707441,127
-593.41698223864842,125
-592.21328135768454,152
-591.009813097191,127
-589.80657741020877,145
-588.60357424978247,120
-587.4008035689676,136
-586.19826532083425,148
-584.99595945845977,147
-583.793885934936,139.5
-582.5920447033659,147
-581.39043571686307,117.5
-580.18905892855764,150
-578.98791429158518,127.5
-577.78700175909034,98
-576.58632128423778,132
-575.38587282020308,136
-574.1856563201618,144.5
-572.98567173731681,134.5
-571.78591902487278,169
-570.58639813603986,139.5
-569.38710902406274,143.5
-568.18805164217156,151
-566.98922594362557,143
-565.790631881684,154
-564.59226940962253,134.5
-563.39413848073127,140
-562.19623904831133,159
-560.99857106566742,158
-559.80113448612792,144.5
-558.60392926301938,151
-557.40695534968654,113.5
-556.21021269949415,126
-555.0137012658015,143
-553.81742100199153,148.5
-552.62137186145628,164.5
-551.4255537975896,156.5
-550.22996676381626,149
-549.03461071355377,136.5
-547.8394856002451,149
-546.64459137733138,156
-545.449927998272,175.5
-544.25549541654073,174.5
-543.06129358562066,142.5
-541.86732245900566,143.5
-540.67358199019873,156
-539.48007213271376,158
-538.28679284007922,137.5
-537.09374406584539,169.5
-535.900925763548,131
-534.70833788675736,165.5
-533.51598038904558,177.5
-532.32385322399932,167.5
-531.13195634520889,128.5
-529.94028970629006,168.5
-528.74885326085314,160.5
-527.55764696253573,147.5
-526.36667076497724,141.5
-525.17592462183165,149
-523.985408486762,167
-522.79512231344415,177.5
-521.60506605556839,153.5
-520.41523966682871,174
-519.22564310093912,156.5
-518.0362763116209,158.5
-516.84713925260257,171.5
-515.65823187763453,150.5
-514.46955414046715,138
-513.28110599486718,167
-512.09288739461954,174.5
-510.90489829350736,157.5
-509.71713864533194,192
-508.52960840390369,147
-507.3423075230512,155
-506.15523595660488,207.5
-504.96839365841697,164.5
-503.78178058233607,149
-502.59539668223624,158
-501.4092419119952,154.5
-500.223316225507,145.5
-499.0376195766712,148.5
-497.85215191940188,184
-496.666913207624,176.5
-495.48190339527719,139.5
-494.29712243630638,171.5
-493.11257028467116,160.5
-491.928246894342,146.5
-490.7441522193003,161
-489.56028621353471,166
-488.37664883105754,177
-487.19324002587746,178.5
-486.01005975202315,161
-484.8271079635324,188.5
-483.6443846144557,168.5
-482.46188965885085,162
-481.27962305079018,134.5
-480.09758474435512,169.5
-478.91577469364165,188
-477.73419285275304,170.5
-476.55283917580709,172
-475.37171361693436,149
-474.19081613026719,155
-473.010146669958,174.5
-471.82970519017181,142.5
-470.64949164507379,175
-469.46950598885633,178
-468.28974817570452,177
-467.1102181598344,182
-465.93091589545475,168.5
-464.75184133679977,173.5
-463.57299443810552,176.5
-462.39437515362624,213
-461.2159834376198,178.5
-460.03781924436043,185
-458.85988252813513,172
-457.68217324323632,189.5
-456.50469134396917,194.5
-455.32743678465886,181
-454.15040951962692,161
-452.97360950321672,173.5
-451.79703668977709,187
-450.62069103367321,171
-449.4445724892721,184
-448.26868101096989,222
-447.09301655315357,168.5
-445.9175790702302,183
-444.74236851661954,181
-443.56738484675407,219.5
-442.39262801506811,150
-441.21809797601236,191
-440.0437946840575,179.5
-438.86971809366878,196
-437.69586815933872,185.5
-436.52224483555256,220
-435.34884807682647,190
-434.17567783767481,204.5
-433.00273407262466,202.5
-431.83001673621948,184.5
-430.65752578300453,168.5
-429.4852611675542,207
-428.31322284443013,177.5
-427.14141076821943,188
-425.96982489351649,194.5
-424.79846517493388,193.5
-423.62733156708055,195
-422.45642402459453,207.5
-421.28574250211022,197
-420.1152869542766,199
-418.94505733575534,184
-417.77505360122632,187
-416.60527570536397,203
-415.43572360287,198
-414.26639724844608,193.5
-413.09729659681216,171.5
-411.92842160268992,188.5
-410.7597722208302,195
-409.59134840596926,196
-408.42315011287792,199.5
-407.2551772963252,204
-406.087429911091,216.5
-404.9199079119735,189
-403.75261125377619,206.5
-402.58553989131542,183.5
-401.41869377941293,197.5
-400.25207287291232,211.5
-399.08567712666627,212
-397.919506495522,202.5
-396.75356093436312,194.5
-395.58784039806596,212.5
-394.42234484151959,218
-393.25707421963307,203
-392.09202848732275,173.5
-390.92720759950862,180
-389.76261151112521,204
-388.59824017713072,220.5
-387.43409355247422,213.5
-386.27017159212846,194.5
-385.10647425107527,229.5
-383.94300148430193,224
-382.77975324681393,216
-381.616729493624,202.5
-380.453930179754,203
-379.29135526024038,225.5
-378.129004690134,197.5
-376.96687842448227,223
-375.80497641835791,239
-374.64329862683917,215.5
-373.4818450050152,213
-372.32061550798426,199
-371.15961009086277,212.5
-369.99882870877082,229.5
-368.83827131683756,205
-367.677937870214,189.5
-366.51782832404751,212.5
-365.3579426335109,217.5
-364.19828075377518,216.5
-363.03884264003136,201
-361.87962824747046,206
-360.7206375313126,226.5
-359.56187044677063,199.5
-358.403326949081,218
-357.24500699348027,216
-356.08691053522307,211
-354.92903752956954,230.5
-353.771387931798,212.5
-352.61396169719228,219
-351.45675878105067,214
-350.29977913867333,227
-349.14302272538407,193.5
-347.98648949651215,214.5
-346.83017940739046,219.5
-345.67409241337191,216
-344.51822846982031,186
-343.36258753210313,200.5
-342.20716955560965,181.5
-341.05197449572188,240
-339.89700230785638,223.5
-338.74225294741518,217.5
-337.58772636983667,213.5
-336.43342253054652,206.5
-335.27934138499768,225.5
-334.12548288865037,225
-332.97184699696481,244.5
-331.81843366542853,220
-330.66524284953266,228
-329.51227450476654,224.5
-328.35952858665769,239.5
-327.20700505071909,218
-326.05470385248555,237
-324.90262494750459,217
-323.75076829132558,232
-322.59913383951789,244.5
-321.44772154765633,286.5
-320.29653137132846,232
-319.14556326613092,229
-317.99481718767311,231.5
-316.84429309157531,234
-315.69399093346874,249
-314.54391066899007,225.5
-313.39405225379596,229
-312.24441564354129,233.5
-311.09500079390455,268
-309.94580766056788,260.5
-308.79683619922253,216
-307.64808636558337,239.5
-306.49955811535619,261.5
-305.35125140426862,249.5
-304.203166188061,259.5
-303.05530242247733,244.5
-301.90766006327794,245
-300.76023906623413,219
-299.61303938712081,242
-298.46606098173288,239.5
-297.31930380586527,224
-296.17276781533837,250.5
-295.02645296596893,255.5
-293.88035921359551,245
-292.73448651404942,236
-291.58883482319834,230.5
-290.44340409690449,254.5
-289.29819429103554,238.5
-288.15320536148647,222.5
-287.0084372641486,240
-285.86388995493689,254
-284.7195633897627,253
-283.57545752455371,248
-282.431572315254,258.5
-281.28790771781496,238.5
-280.1444636881879,260
-279.00124018235692,255
-277.8582371562934,246.5
-276.71545456599597,259.5
-275.57289236746692,223.5
-274.43055051671945,235.5
-273.28842896977221,251
-272.14652768267115,226.5
-271.00484661145128,253
-269.86338571217493,232.5
-268.72214494090622,242
-267.581124253722,233.5
-266.44032360671372,264.5
-265.29974295597458,217.5
-264.159382257616,264.5
-263.01924146776037,263
-261.87932054252815,243.5
-260.73961943807444,257.5
-259.60013811053796,258.5
-258.46087651608468,244
-257.32183461088971,228
-256.18301235113358,249.5
-255.04440969300595,250.5
-253.90602659271462,259.5
-252.76786300647473,290
-251.62991889051045,280
-250.49219420105146,231.5
-249.35468889435288,246.5
-248.217402926668,250.5
-247.08033625425924,239
-245.94348883341445,241
-244.80686062040877,297
-243.67045157154826,229.5
-242.53426164314442,239.5
-241.39829079150877,227
-240.26253897297829,261.5
-239.12700614388814,247
-237.99169226059348,262.5
-236.85659727945676,251.5
-235.72172115684771,293.5
-234.58706384914331,256
-233.4526253127442,244
-232.31840550405468,284.5
-231.18440437947902,218
-230.05062189545242,278.5
-228.91705800840282,230.5
-227.78371267477996,300
-226.65058585103725,271
-225.51767749363898,266
-224.38498755906403,242
-223.2525160037967,285.5
-222.1202627843395,268.5
-220.98822785719858,296
-219.85641117888918,253.5
-218.7248127059429,245
-217.59343239489681,306
-216.46227020230072,299.5
-215.3313260847226,291.5
-214.20059999872137,265.5
-213.07009190087956,270.5
-211.9398017477979,272.5
-210.80972949606621,281
-209.67987510230523,271
-208.5502385231357,277.5
-207.42081971518564,269.5
-206.29161863510308,277.5
-205.16263523954149,253.5
-204.03386948516163,276
-202.90532132864428,250.5
-201.77699072666474,264.5
-200.64887763592742,269.5
-199.52098201313311,272.5
-198.39330381500076,278
-197.26584299825117,247
-196.13859951962695,268.5
-195.01157333587253,268
-193.88476440374143,276
-192.75817268001083,281.5
-191.63179812144881,294
-190.50564068485255,292.5
-189.3797003270156,279
-188.25397700474423,296.5
-187.12847067486291,287
-186.00318129420339,279.5
-184.87810881960104,264
-183.75325320790944,307
-182.62861441598398,257.5
-181.50419240070187,256.5
-180.37998711894033,275
-179.25599852759296,274
-178.13222658356062,295
-177.00867124376236,278
-175.88533246510815,278.5
-174.76221020454068,294.5
-173.63930441900084,281.5
-172.51661506544224,322
-171.39414210082759,296.5
-170.27188548212871,289.5
-169.14984516633558,336.5
-168.02802111043638,311.5
-166.90641327144112,315.5
-165.78502160636344,293.5
-164.66384607223154,311.5
-163.54288662607541,288.5
-162.4221432249451,276.5
-161.30161582589426,299.5
-160.18130438598928,320
-159.06120886230929,316.5
-157.94132921194432,315
-156.82166539198624,295
-155.70221735953965,304.5
-154.58298507173095,332
-153.46396848568111,318
-152.34516755853474,284
-151.22658224743282,285
-150.10821250953813,297.5
-148.99005830202077,312.5
-147.87211958205626,326.5
-146.75439630683832,322
-145.63688843355885,337.5
-144.51959591943705,332
-143.40251872168847,315.5
-142.28565679753956,332.5
-141.16901010423499,323.5
-140.05257859902849,325
-138.93636223917383,311
-137.82036098194294,346
-136.70457478462595,349.5
-135.58900360449843,328.5
-134.47364739887416,339
-133.35850612506329,347.5
-132.24357974038321,327
-131.12886820217136,330.5
-130.01437146776334,345
-128.90008949451476,363.5
-127.78602223979033,391.5
-126.67216966095839,342.5
-125.55853171540366,338.5
-124.44510836051813,384
-123.33189955371017,362
-122.2189052523845,376
-121.10612541397313,390.5
-119.9935599959008,406
-118.88120895561769,443
-117.76907225057403,474.5
-116.65714983823818,487.5
-115.54544167607855,498.5
-114.43394772158354,509
-113.32266793224335,574
-112.21160226556458,555.5
-111.10075067906291,522
-109.99011313026131,524
-108.87968957669545,541.5
-107.76947997590833,572
-106.65948428545926,513
-105.54970246290759,520.5
-104.44013446582903,524
-103.33078025181567,480.5
-102.22163977845048,512.5
-101.11271300335284,524
-100.00399988412755,558.5
-98.8955003784049,569.5
-97.787214443818812,577.5
-96.679142038015925,610
-95.571283118651991,590
-94.46363764339003,600.5
-93.356205569909434,550.5
-92.248986855895055,563.5
-91.141981459042654,485.5
-90.035189337055272,444.5
-88.928610447654137,448.5
-87.8222447485623,402
-86.716092197515536,413.5
-85.610152752264185,413
-84.504426370558576,392.5
-83.3989130101636,418.5
-82.29361262886232,441
-81.188525184439641,407.5
-80.083650634691367,449
-78.978988937416943,410
-77.8745400504431,446
-76.7703039315893,416.5
-75.666280538693172,522
-74.56246982959965,518
-73.45887176217002,619.5
-72.355486294265575,680.5
-71.2523133837658,671
-70.149352988557439,616
-69.046605066534539,540
-67.944069575602043,501
-66.84174647367945,529.5
-65.739635718693535,496
-64.63773726857471,468.5
-63.5360510812734,449.5
-62.434577114750937,448
-61.3333153269632,453.5
-60.232265675895178,454
-59.131428119522752,427.5
-58.030802615854554,461
-56.930389122886481,466
-55.830187598636257,475.5
-54.730198001132521,447.5
-53.630420288413006,476
-52.530854418515446,483.5
-51.431500349504859,461.5
-50.332358039440805,486
-49.233427446402857,462.5
-48.134708528470583,481
-47.036201243741743,493.5
-45.937905550323194,492.5
-44.839821406334522,501
-43.74194876988804,484
-42.64428759913244,495.5
-41.5468378522055,559
-40.449599487265004,538
-39.352572462472381,531
-38.255756736005424,521.5
-37.159152266047386,525
-36.062759010790614,537.5
-34.966576928443828,551
-33.8706059772212,514.5
-32.774846115338732,515.5
-31.679297301039696,561
-30.583959492563736,526
-29.488832648166863,559.5
-28.393916726110547,604
-27.299211684672628,614
-26.204717482129126,606.5
-25.110434076774254,545
-24.016361426916774,528.5
-22.922499490865448,557
-21.828848226945411,575.5
-20.735407593489072,588.5
-19.642177548834297,568.5
-18.549158051340783,549
-17.456349059368222,610.5
-16.363750531281767,645
-15.271362425470215,831.5
-14.179184700326005,915.5
-13.087217314247027,907.5
-11.995460225642091,850
-10.903913392940012,871.5
-9.8125767745696066,841
-8.7214503289651475,849
-7.6305340145827358,817
-6.5398277898821107,833
-5.4493316133357439,736
-4.3590454434179264,527.5
-3.26896923861932,272
-2.1791029574433196,108
-1.0894465583987767,32.5
-3.637978807091713E-12,65
1.0892367592168739,127
2.1782637607157085,231
3.2670810459494533,536
4.3556886563619628,754
5.4440866333861777,832
6.5322750184368488,829
7.6202538529305457,860.5
8.7080231782692863,833
9.7955830358478124,832.5
10.882933467048133,876.5
11.970074513241343,899
13.0570062157949,924.5
14.143728616063527,887
15.230241755389216,785.5
16.316545675103043,621.5
17.402640416532449,620
18.488526020995778,599.5
19.574202529791364,598
20.659669984221182,608
21.744928425567196,619.5
22.82997789510955,579.5
23.914818434106564,607.5
24.99945008382565,574.5
26.083872885503297,660.5
27.168086880381452,637.5
28.252092109691148,625
29.33588861464159,591.5
30.419476436449258,566.5
31.502855616305169,565
32.586026195402155,555.5
33.668988214920319,564
34.751741716028846,606.5
35.834286739884192,566
36.916623327637353,549.5
37.998751520428414,586
39.080671359392,589.5
40.162382885640909,596
41.243886140291579,601.5
42.325181164447713,558
43.406267999200281,595.5
44.4871466856257,551
45.5678172648004,563.5
46.648279777786229,533
47.72853426563961,502.5
48.8085807694024,515
49.888419330107354,545
50.968049988779967,538.5
52.047472786436629,537
53.126687764075541,539.5
54.205694962698544,515.5
55.284494423289289,516.5
56.363086186827786,539.5
57.44147029427404,493.5
58.519646786589874,526
59.597615704718919,571
60.67537708960117,519.5
61.752930982163889,542.5
62.83027742332888,518.5
63.90741645399612,518
64.984348115074681,612.5
66.061072447448169,578
67.13758949199655,623
68.213899289597975,636
69.29000188109967,716.5
70.36589730736705,783
71.441585609234608,714
72.517066827535018,756.5
73.592341003088222,637.5
74.667408176715981,671
75.742268389207311,548
76.816921681369422,499
77.891368093980418,482
78.965607667816585,489.5
80.039640443639655,507
81.113466462209544,462.5
82.187085764271615,518
83.260498390560315,531.5
84.333704381804637,512.5
85.40670377871902,486.5
86.479496622014267,516
87.552082952388446,572
88.624462810528712,517
89.6966362371113,560.5
90.76860327281247,627.5
91.840363958286616,702
92.911918334189977,715.5
93.983266441158776,775.5
95.054408319829236,758.5
96.12534401081939,769.5
97.19607355474,725
98.2665969922,699.5
99.336914363786491,674.5
100.40702571009024,634.5
101.47693107168197,677.5
102.54663048912334,650.5
103.61612400297781,710.5
104.68541165378701,711
105.75449348208713,701.5
106.82336952840706,716
107.89203983326297,729.5
108.96050443715831,756
110.02876338060378,705.5
111.09681670407736,722.5
112.16466444806247,692.5
113.23230665302981,695.5
114.2997433594428,665.5
115.36697460774849,659.5
116.43400043838665,614.5
117.50082089179705,586
118.56743600839945,558
119.63384582860272,522.5
120.70005039281386,521.5
121.76604974143083,491
122.83184391483519,513
123.89743295340486,490.5
124.96281689750322,487
126.02799578748636,431
127.09296966370857,487
128.15773856649867,462
129.22230253619455,414.5
130.28666161311048,429.5
131.35081583755345,413
132.414765249825,446
133.47850989022481,435.5
134.54204979901988,444
135.60538501649535,447.5
136.66851558290364,427.5
137.73144153850444,428
138.79416292353926,406
139.85667977824414,423
140.91899214284422,423
141.9811000575537,414
143.0430035625759,416
144.10470269811231,433.5
145.16619750435348,420
146.22748802146998,425.5
147.28857428963602,401
148.3494563490076,427
149.41013423973891,412.5
150.47060800196778,436
151.53087767582292,470.5
152.59094330143125,449.5
153.65080491890512,421.5
154.71046256834779,416
155.76991628984433,414.5
156.82916612349436,415.5
157.88821210936294,406
158.94705428751695,386
160.00569269801963,444
161.06412738090876,434.5
162.12235837622939,413
163.18038572400837,410.5
164.23820946425803,394
165.29582963700341,400.5
166.35324628222952,403
167.41045943993777,391
168.4674691501059,407
169.52427545270439,402
170.58087838770371,407
171.63727799505432,403
172.6934743146976,424.5
173.74946738657491,424.5
174.80525725060761,415.5
175.86084394671525,398.5
176.91622751480463,406
177.97140799477529,437
179.02638542651403,412.5
180.08115984989854,426
181.13573130480836,432
182.1900998310939,408
183.24426546861469,403
184.29822825721203,424.5
185.35198823671635,365.5
186.40554544695078,394.5
187.45889992773846,440.5
188.51205171887523,410.5
189.5650008601624,398
190.61774739138855,431
191.67029135232588,371
192.72263278274659,398
193.77477172241379,380
194.82670821106694,418
195.87844228846188,407.5
196.92997399431806,384
197.98130336836039,354
199.03243045030285,393.5
200.083355279854,375.5
201.13407789669873,394
202.18459834053465,421
203.23491665102665,394.5
204.28503286785053,379
205.33494703066026,390.5
206.38465917910617,396
207.43416935282403,381
208.48347759144417,420
209.53258393459691,398.5
210.58148842188348,448.5
211.63019109291054,423.5
212.67869198727021,377
213.726991144551,402
214.775088604325,425.5
215.82298440615341,420.5
216.8706785896029,376
217.91817119421466,397.5
218.96546225952443,399
220.01255182506975,394
221.05943993036635,420.5
222.10612661491905,384
223.15261191823993,430
224.19889587981743,432.5
225.24497853913635,380.5
226.29085993566514,398
227.33654010887221,436
228.38201909822055,442
229.42729694314221,395.5
230.47237368309288,399
231.51724935748462,420
232.56192400574764,401.5
233.60639766728673,409
234.65067038150482,407
235.69474218779396,417
236.73861312553527,441.5
237.78228323410804,429.5
238.82575255286974,414.5
239.86902112117787,396.5
240.9120889783826,402.5
241.95495616381777,402.5
242.99762271681357,434
244.04008867668745,387
245.08235408274959,416.5
246.1244189743029,430.5
247.16628339063755,418.5
248.20794737103279,425
249.24941095476788,380.5
250.29067418110571,396
251.33173708930008,420.5
252.37259971859567,371
253.41326210823536,409.5
254.45372429744384,372.5
255.49398632544035,391.5
256.53404823143683,390
257.57391005463069,438
258.61357183421751,435.5
259.65303360938196,393.5
260.69229541928871,408
261.73135730310787,407
262.77021929999864,376.5
263.80888144910386,406
264.84734378955909,385.5
265.88560636049988,401.5
266.92366920103996,426
267.9615323502876,385
268.99919584735289,411
270.03665973132047,420
271.07392404127677,411.5
272.1109888162955,426
273.14785409544129,391
274.18451991776965,445.5
275.22098632233428,433
276.25725334816525,406
277.29332103429442,405
278.32918941974458,441.5
279.36485854352395,376.5
280.40032844463531,411.5
281.43559916207232,406.5
282.4706707348214,401.5
283.50554320185074,386
284.540216602134,429.5
285.57469097462854,397.5
286.60896635827521,401.5
287.6430427920186,407.5
288.67692031479055,424.5
289.71059896550651,409.5
290.74407878308375,430
291.777359806425,434
292.81044207441846,432.5
293.84332562596137,431
294.87601049991827,408.5
295.90849673516095,403
296.94078437055396,393
297.97287344493816,410
299.00476399715808,395
300.03645606604368,411
301.06794969041584,392
302.09924490909361,444
303.13034176088149,447
304.16124028456943,401
305.1919405189492,388.5
306.222442502798,381.5
307.25274627488216,425
308.2828518739625,433.5
309.31275933879624,405
310.34246870811512,432
311.37198002066361,437.5
312.40129331515891,430.5
313.43040863031638,429
314.45932600484593,451.5
315.48804547744476,409.5
316.51656708679729,382
317.54489087158618,433.5
318.57301687048675,414.5
319.60094512215619,421.5
320.62867566524437,410.5
321.65620853840483,413
322.68354378026197,408.5
323.71068142945296,383.5
324.73762152458949,395.5
325.76436410428141,377
326.79090920712588,401
327.81725687171638,416.5
328.84340713663732,428
329.86936004045674,445
330.8951156217463,422
331.92067391905039,408
332.9460349709243,409
333.97119881590334,436.5
334.99616549251732,426.5
336.02093503928518,433.5
337.04550749471673,430.5
338.06988289731453,435
339.09406128557566,387
340.11804269798085,438
341.14182717300719,396
342.16541474912265,415.5
343.18880546478249,400
344.21199935844015,401.5
345.23499646853088,394.5
346.25779683349174,390.5
347.2804004917416,393.5
348.30280748169571,415
349.3250178417602,417.5
350.34703161032849,402.5
351.36884882579034,443
352.39046952652461,416.5
353.41189375090107,434.5
354.43312153727675,398.5
355.45415292401049,402
356.47498794944113,452
357.49562665190388,454
358.51606906973029,392
359.53631524122466,406
360.55636520471126,402.5
361.576218998478,442
362.59587666081825,431
363.6153382300181,417.5
364.63460374434362,422.5
365.65367324206454,420.5
366.67254676143239,398.5
367.69122434069686,398.5
368.70970601810041,460
369.7279918318618,420
370.74608182021075,432.5
371.7639760213533,399
372.78167447349733,451.5
373.79917721483071,446
374.81648428354674,406
375.8335957178133,390.5
376.85051155580732,411
377.86723183568211,435.5
378.88375659558915,384.5
379.90008587367265,416.5
380.91621970806045,418.5
381.932158136884,405.5
382.94790119825484,446
383.96344893028072,423
384.97880137105676,419.5
385.99395855867624,423
387.0089205312197,435
388.02368732675495,410
389.03825898334981,410.5
390.05263553905752,447.5
391.06681703192226,433
392.08080349998454,379
393.09459498126671,432.5
394.10819151379292,399
395.12159313558004,440
396.13479988461768,423
397.14781179890815,410.5
398.16062891643014,418.5
399.17325127516779,389.5
400.18567891308157,408.5
401.19791186813563,389.5
402.20995017827954,411.5
403.22179388145014,445.5
404.23344301558427,408.5
405.24489761860423,437
406.256157728425,421
407.26722338295986,427.5
408.27809462009827,380
409.28877147773528,398.5
410.29925399374588,433.5
411.30954220601052,390.5
412.31963615238783,406
413.3295358707328,446.5
414.33924139889314,434
415.348752774702,433
416.35807003599439,445.5
417.36719322058889,424
418.3761223662932,454
419.38485751091685,397
420.39339869224932,406.5
421.4017459480765,418
422.4098993161806,436
423.41785883432567,407
424.42562454027211,414.5
425.43319647177304,446.5
426.44057466656886,392
427.44775916239269,414.5
428.45474999697581,391
429.46154720802588,425.5
430.46815083326146,401.5
431.474560910372,390.5
432.48077747705611,398
433.48680057099773,425.5
434.4926302298627,443.5
435.49826649132046,425
436.50370939302593,416
437.50895897263217,443.5
438.5140152677759,401
439.51887831608292,394
440.52354815518265,432.5
441.52802482268817,405
442.532308356198,435
443.53639879331604,366
444.54029617162814,437
445.54400052871461,404
446.54751190214483,418.5
447.55083032947732,409.5
448.553955848276,436
449.55688849607577,382.5
450.55962831042052,415
451.56217532883238,418
452.56452958883892,405.5
453.56669112794589,428.5
454.56865998365174,424.5
455.57043619345859,417.5
456.57201979484853,409.5
457.57341082529638,403.5
458.57460932227514,418
459.57561532323962,463
460.57642886564281,394.5
461.57704998692861,447.5
462.57747872453183,456.5
463.57771511587816,418.5
464.57775919838059,428.5
465.5776110094539,436.5
466.57727058649289,426.5
467.57673796689414,423.5
468.5760131880379,446
469.57509628729895,395
470.57398730204477,422
471.57268626963196,429.5
472.57119322740982,437
473.56950821272039,426.5
474.56763126289479,420
475.56556241525323,430.5
476.56330170711954,396.5
477.5608491757921,430.5
478.55820485857475,394.5
479.55536879275314,471
480.55234101561109,423.5
481.54912156442151,434
482.54571047644822,419
483.54210778894412,452
484.5383135391603,410
485.53432776433874,452.5
486.53015050170507,404
487.52578178848125,407
488.521221661882,427
489.51647015911294,424.5
490.511527317376,416
491.50639317384957,440
492.50106776571556,433
493.49555113015049,374.5
494.48984330431631,432.5
495.48394432536406,412.5
496.477854230443,424.5
497.47157305668588,439
498.46510084122747,426.5
499.45843762119148,436.5
500.45158343368166,428.5
501.44453831580358,458
502.43730230465735,400.5
503.4298754373267,397
504.42225775089173,403
505.41444928242527,423.5
506.40645006898194,451
507.39826014762366,424
508.38987955538869,398
509.38130832932075,435
510.3725465064399,419.5
511.36359412377169,450
512.35445121832345,412
513.345117827108,440
514.33559398710713,456.5
515.32587973531554,449
516.31597510870961,443.5
517.305880144253,427
518.29559487891856,393
519.2851193496499,452.5
520.27445359339254,440.5
521.2635976470865,400
522.25255154765728,373
523.24131533202308,423.5
524.22988903709665,444.5
525.21827269978348,414.5
526.20646635697267,401.5
527.19447004554968,434
528.18228380239634,461.5
529.16990766437993,428
530.15734166836046,439
531.14458585119428,439
532.13164024971957,457.5
533.11850490077813,428
534.1051798411936,429
535.09166510778778,430.5
536.0779607373679,435
537.06406676674123,405
538.04998323269865,464.5
539.03571017202739,427.5
540.02124762150379,401.5
541.00659561790053,420
541.99175419797393,420
542.97672339848032,436
543.96150325615963,425.5
544.94609380775364,392
545.93049508998593,421.5
546.91470713957824,397.5
547.89872999324143,402.5
548.88256368767543,432
549.86620825957834,461
550.84966374563555,402.5
551.83293018252334,393.5
552.81600760691072,431.5
553.79889605546123,414.5
554.78159556482933,439
555.76410617165857,388.5
556.74642791258339,414
557.72856082423277,413
558.71050494323026,442
559.692260306183,422.5
560.67382694969274,418
561.65520491036477,413.5
562.63639422477536,409
563.617394929508,446
564.59820706113169,459.5
565.5788306562099,446
566.55926575129524,417
567.53951238293848,429.5
568.51957058766675,461
569.49944040201626,418
570.47912186250869,424.5
571.45861500565115,405.5
572.43791986795441,409
573.417036485911,412.5
574.3959648960099,392.5
575.37470513472908,428
576.35325723854476,433.5
577.3316212439131,396.5
578.309797187294,432
579.28778510513439,389
580.26558503387241,386.5
581.24319700993874,428.5
582.22062106975318,409.5
583.1978572497319,409.5
584.17490558627833,407
585.15176611579591,402.5
586.12843887466624,397
587.1049238992764,417.5
588.08122122599343,403.5
589.05733089119167,404.5
590.03325293122,419.5
591.00898738242722,393.5
591.98453428115681,421
592.95989366373578,435
593.93506556649481,384.5
594.91005002574457,391.5
595.88484707779207,403.5
596.85945675894072,402
597.83387910547935,421.5
598.808114153695,430.5
599.78216193985281,404.5
600.7560225002253,375
601.729695871074,374
602.70318208864228,410
603.67648118917714,426
604.64959320891285,403
605.62251818407458,417.5
606.59525615087659,391.5
607.56780714553315,413
608.54017120424214,421
609.51234836320145,408.5
610.48433865859079,417.5
611.45614212658984,383.5
612.42775880336558,393
613.39918872508315,387.5
614.37043192788951,424
615.34148844793526,400.5
616.31235832134917,372.5
617.28304158426727,372
618.253538272802,374.5
619.2238484230711,394
620.19397207117981,401
621.16390925321321,411.5
622.13366000527276,387
623.103224363429,415.5
624.07260236375441,388.5
625.04179404231763,386.5
626.01079943516561,420.5
626.97961857835253,416
627.94825150791621,407.5
628.91669825988356,425.5
629.8849588702833,407
630.85303337512414,413
631.8209218104148,425
632.7886242121549,404
633.75614061633678,397.5
634.72347105893823,425.5
635.69061557593523,398
636.65757420329646,391.5
637.6243469769779,424
638.59093393293,397.5
639.55733510709615,405
640.5235505354085,450.5
641.48958025379216,403.5
642.45542429816669,442
643.4210827044426,412
644.38655550851945,405
645.351842746295,416.5
646.31694445364883,411.5
647.28186066646231,414
648.24659142060591,409
649.21113675193737,390.5
650.17549669631444,380.5
651.13967128958211,419.5
652.10366056757266,376
653.067464566122,397
654.03108332104784,400
654.99451686816428,347
655.95776524327266,387
656.920828482178,384.5
657.88370662066518,397.5
658.84639969451382,393
659.80890773950159,394.5
660.77123079139164,415
661.733368885938,369
662.69532205889118,406.5
663.65709034599786,446
664.61867378298484,386
665.58007240558072,384.5
666.54128624949954,395
667.50231535045532,394.5
668.46315974414392,417
669.42381946626119,372
670.38429455249025,402.5
671.34458503851238,382
672.30469095999615,392
673.2646123525974,378
674.224349251972,388
675.18390169377017,417.5
676.14326971362243,369.5
677.10245334716274,393.5
678.0614526300069,400.5
679.02026759777618,385.5
679.97889828607,444.5
680.93734473048789,420
681.89560696662011,429
682.85368503004611,420
683.81157895634169,405
684.76928878106992,362.5
