-777.74687133807856,2.5799999237060547
-776.50770429765,1.5399999618530273
-775.26877705141487,1.2200000286102295
-774.03008955063888,-0.800000011920929
-772.79164174658763,3.3399999141693115
-771.55343359055223,0.62000000476837158
-770.31546503381287,2.2599999904632568
-769.07773602767884,3.2599999904632568
-767.8402465234667,2.7799999713897705
-766.60299647250758,1.6599999666213989
-765.36598582614351,2.9200000762939453
-764.12921453572744,0.800000011920929
-762.89268255262323,3.3399999141693115
-761.65638982821292,2.440000057220459
-760.42033631388222,2.8599998950958252
-759.184521961035,2.5399999618530273
-757.948946721086,1.2000000476837158
-756.71361054546833,2.8599998950958252
-755.47851338560758,2.0999999046325684
-754.24365519296589,2.7599999904632568
-753.009035918998,1.3799999952316284
-751.77465551518071,4.1399998664855957
-750.5405139330087,4.820000171661377
-749.30661112396592,1.8799999952316284
-748.0729470395836,3.9600000381469727
-746.8395216313711,3.4200000762939453
-745.60633485086328,0.800000011920929
-744.3733866496168,1.4199999570846558
-743.14067697918108,1.9600000381469727
-741.90820579113461,2.5999999046325684
-740.67597303705952,1.6000000238418579
-739.44397866855252,3.9800000190734863
-738.21222263721756,3.1400001049041748
-736.98070489468046,1.5199999809265137
-735.749425392567,1.1000000238418579
-734.51838408252479,3.2000000476837158
-733.28758091621239,1.8200000524520874
-732.057015845292,1.1599999666213989
-730.82668882144753,1.9600000381469727
-729.59659979637036,2.8199999332427979
-728.366748721759,1.3999999761581421
-727.13713554934475,2.2799999713897705
-725.90776023084072,1.1200000047683716
-724.67862271799277,2.440000057220459
-723.449722962554,2.9000000953674316
-722.22106091628848,0.699999988079071
-720.99263653096386,2.3199999332427979
-719.76444975838785,1.3799999952316284
-718.53650055034268,2.4600000381469727
-717.308788858647,1.2999999523162842
-716.08131463512655,1.559999942779541
-714.85407783161827,0.95999997854232788
-713.62707839996983,3.7599999904632568
-712.40031629203258,2.0999999046325684
-711.17379145969062,-0.2800000011920929
-709.94750385482075,1.8600000143051147
-708.72145342932527,2.2000000476837158
-707.49564013510644,0.81999999284744263
-706.27006392408839,1.8200000524520874
-705.04472474819522,2.8199999332427979
-703.81962255938379,2.2000000476837158
-702.59475730959639,2.5199999809265137
-701.3701289508117,1.7999999523162842
-700.14573743500478,1.5399999618530273
-698.9215827141652,2.880000114440918
-697.69766474030075,0.2199999988079071
-696.47398346541922,1.9800000190734863
-695.25053884156114,2.9200000762939453
-694.02733082075611,2.2000000476837158
-692.80435935505557,-1.8200000524520874
-691.58162439652915,0.72000002861022949
-690.35912589724649,1.8799999952316284
-689.13686380929175,2.6600000858306885
-687.91483808476733,3.2000000476837158
-686.69304867578649,0.059999998658895493
-685.47149553447343,1.0199999809265137
-684.25017861295237,3.7200000286102295
-683.02909786337659,2.619999885559082
-681.80825323790668,2.059999942779541
-680.5876446887105,3.0799999237060547
-679.3672721679668,2.7799999713897705
-678.14713562787256,1.6399999856948853
-676.92723502063564,3.440000057220459
-675.70757029846391,2.5799999237060547
-674.48814141360162,1.3400000333786011
-673.26894831827849,1.8200000524520874
-672.04999096475331,1.8799999952316284
-670.83126930528488,2.059999942779541
-669.61278329215747,3.5799999237060547
-668.39453287765537,-0.14000000059604645
-667.176518014081,2.7599999904632568
-665.95873865374051,1.7200000286102295
-664.7411947489727,0.40000000596046448
-663.5238862520946,2.9000000953674316
-662.30681311546687,1.5
-661.0899752914429,3.380000114440918
-659.87337273240155,3.8199999332427979
-658.6570053907144,3.4000000953674316
-657.44087321878942,0.54000002145767212
-656.22497616902,3.119999885559082
-655.009314193836,0.57999998331069946
-653.79388724565979,1.8600000143051147
-652.57869527693947,2.0999999046325684
-651.363738240123,0.800000011920929
-650.14901608768014,4.1399998664855957
-648.93452877208438,0.89999997615814209
-647.720276245831,1.2999999523162842
-646.5062584614152,1.9600000381469727
-645.29247537135416,0.75999999046325684
-644.078926928165,3.3399999141693115
-642.86561308439377,0.51999998092651367
-641.65253379257956,3.0199999809265137
-640.43968900529035,2.119999885559082
-639.22707867508689,0.54000002145767212
-638.01470275456631,1.3799999952316284
-636.80256119630758,3.9200000762939453
-635.590653952926,1.5199999809265137
-634.37898097704056,3.3599998950958252
-633.16754222128111,2.8399999141693115
-631.95633763828118,2.3399999141693115
-630.745367180707,0.89999997615814209
-629.534630801214,2.4800000190734863
-628.32412845248655,2.559999942779541
-627.11386008720547,1.7999999523162842
-625.9038256580734,1.4199999570846558
-624.69402511780754,-0.039999999105930328
-623.48445841912508,3.5799999237060547
-622.27512551476138,1.8200000524520874
-621.0660263574664,0.62000000476837158
-619.85716089999733,2.9000000953674316
-618.64852909512592,1.4800000190734863
-617.44013089563123,2.4800000190734863
-616.2319662543141,3.6600000858306885
-615.0240351239645,0.63999998569488525
-613.81633745741237,4.119999885559082
-612.60887320749134,2.1400001049041748
-611.40164232702409,1.8200000524520874
-610.194644768877,2.2200000286102295
-608.98788048590177,1.6000000238418579
-607.781349430983,3.4600000381469727
-606.57505155700892,2
-605.36898681687126,2.0999999046325684
-604.1631551634764,1.7000000476837158
-602.95755654975983,1.4800000190734863
-601.75219092864245,1.0199999809265137
-600.54705825307065,1.8200000524520874
-599.34215847600535,1.7400000095367432
-598.13749155041478,1.2999999523162842
-596.93305742927441,1.7799999713897705
-595.72885606557793,3.7599999904632568
-594.52488741232992,0.5
-593.32115142254224,2.880000114440918
-592.117648049245,-0.18000000715255737
-590.91437724546449,1.0199999809265137
-589.71133896426,2.380000114440918
-588.50853315869062,1.3799999952316284
-587.30595978182646,2.5
-586.10361878675576,1.5
-584.90151012657043,2.0999999046325684
-583.69963375437328,1.1000000238418579
-582.49798962329442,0.74000000953674316
-581.296577686453,1.7599999904632568
-580.09539789699556,2.6800000667572021
-578.894450208074,2.6600000858306885
-577.69373457285474,0.62000000476837158
-576.4932509445116,3.940000057220459
-575.29299927623651,-0.699999988079071
-574.09297952122142,2.1800000667572021
-572.89319163268192,0.8399999737739563
-571.69363556384451,3.4200000762939453
-570.49431126793752,-0.87999999523162842
-569.29521869820383,2
-568.09635780790632,3.059999942779541
-566.89772855030969,1.4199999570846558
-565.69933087869686,3.440000057220459
-564.50116474635433,1.1000000238418579
-563.30323010658867,2.2799999713897705
-562.1055269127155,-0.059999998658895493
-560.90805511805775,1.6799999475479126
-559.710814675951,3.2799999713897705
-558.513805539751,1.3999999761581421
-557.31702766280978,0.87999999523162842
-556.12048099851017,2.3199999332427979
-554.92416550022062,2.2400000095367432
-553.72808112134589,2.2599999904632568
-552.53222781529075,0.36000001430511475
-551.33660553547088,1.7799999713897705
-550.14121423531651,1.1399999856948853
-548.94605386826515,0.74000000953674316
-547.75112438777614,2.4000000953674316
-546.55642574730518,3.7999999523162842
-545.361957900328,-0.059999998658895493
-544.167720800333,0.18000000715255737
-542.97371440082134,1.6799999475479126
-541.77993865529243,2.059999942779541
-540.58639351727652,-0.079999998211860657
-539.39307894030026,3.4000000953674316
-538.19999487790665,1.6799999475479126
-537.00714128365507,0.40000000596046448
-535.81451811110674,2.440000057220459
-534.622125313841,1.940000057220459
-533.42996284544643,1.7599999904632568
-532.23803065952234,1.2000000476837158
-531.04632870968271,2.3399999141693115
-529.85485694955059,1.1599999666213989
-528.66361533275631,0.95999997854232788
-527.47260381295564,1.3200000524520874
-526.28182234379165,1.7200000286102295
-525.09127087894194,2.440000057220459
-523.90094937208778,2.7400000095367432
-522.71085777691223,1.7999999523162842
-521.52099604712748,1.7999999523162842
-520.33136413644206,1.8799999952316284
-519.14196199858088,1.4600000381469727
-517.95278958728341,1.6000000238418579
-516.76384685629819,-0.41999998688697815
-515.57513375937924,1.6200000047683716
-514.38665025030423,1.4800000190734863
-513.19839628285263,0.54000002145767212
-512.01037181081665,0.41999998688697815
-510.82257678800124,0.2199999988079071
-509.63501116822226,2.4000000953674316
-508.44767490530649,3.1400001049041748
-507.26056795309523,2
-506.07369026543893,0.36000001430511475
-504.88704179619526,3.2799999713897705
-503.70062249923831,-0.77999997138977051
-502.51443232845486,1.9600000381469727
-501.32847123773354,2.9000000953674316
-500.14273918098661,0.23999999463558197
-498.95723611213,1.6799999475479126
-497.77196198509228,2.619999885559082
-496.58691675381124,-0.10000000149011612
-495.40210037224642,1.5
-494.21751279435375,0.54000002145767212
-493.03315397410915,1.3999999761581421
-491.84902386549584,1.4600000381469727
-490.665122422517,2.1400001049041748
-489.48144959917408,1
-488.29800534949027,1.1599999666213989
-487.11478962749243,1.2599999904632568
-485.93180238722562,0.95999997854232788
-484.74904358273852,2.619999885559082
-483.5665131681053,1.7200000286102295
-482.38421109738738,2.2999999523162842
-481.2021373246771,2.2000000476837158
-480.0202918040759,0.60000002384185791
-478.83867448969067,2.6600000858306885
-477.65728533564106,1.8200000524520874
-476.47612429605579,1.3400000333786011
-475.2951913250854,0.059999998658895493
-474.11448637687681,3.5799999237060547
-472.93400940559695,-0.57999998331069946
-471.75376036542184,0.93999999761581421
-470.57373921054023,1.0399999618530273
-469.39394589515177,2.3399999141693115
-468.21438037346343,0.40000000596046448
-467.03504259970032,1.6799999475479126
-465.8559325280894,1.3600000143051147
-464.67705011287944,-0.40000000596046448
-463.49839530831923,0.98000001907348633
-462.31996806867937,1.0199999809265137
-461.14176834823775,-0.14000000059604645
-459.96379610127588,1.7200000286102295
-458.78605128210074,-0.15999999642372131
-457.60853384501752,3
-456.43124374435138,1.3999999761581421
-455.25418093443295,1.2200000286102295
-454.07734536960925,0.56000000238418579
-452.90073700422909,1.7799999713897705
-451.7243557926613,0.5
-450.54820168928381,2.4600000381469727
-449.37227464848911,2.3599998950958252
-448.19657462467148,3.2999999523162842
-447.02110157224524,2.5199999809265137
-445.84585544562833,-0.2800000011920929
-444.67083619925324,1.440000057220459
-443.49604378757067,2.1800000667572021
-442.32147816503129,-0.87999999523162842
-441.14713928610036,2.2799999713897705
-439.97302710525764,1.1799999475479126
-438.79914157698659,-0.34000000357627869
-437.62548265579426,0.63999998569488525
-436.45205029618774,1.6599999666213989
-435.27884445268865,1.440000057220459
-434.10586507982771,2.4800000190734863
-432.93311213215566,1.6000000238418579
-431.76058556421776,0.34000000357627869
-430.58828533058477,0.93999999761581421
-429.41621138583832,1.9600000381469727
-428.24436368456008,0.81999999284744263
-427.07274218135353,2.9000000953674316
-425.90134683082943,0.86000001430511475
-424.73017758760216,0.81999999284744263
-423.55923440631159,0.56000000238418579
-422.38851724159576,4.8600001335144043
-421.21802604811455,-0.37999999523162842
-420.04776078052782,2.0399999618530273
-418.87772139351546,2.7400000095367432
-417.70790784176643,0.93999999761581421
-416.53832007998062,-2.0399999618530273
-415.36895806286157,3.7000000476837158
-414.19982174513279,0.079999998211860657
-413.03091108152512,-0.11999999731779099
-411.86222602678754,1.6000000238418579
-410.69376653566542,1.3999999761581421
-409.52553256292776,1.1000000238418579
-408.35752406334905,0.92000001668930054
-407.18974099171828,0.93999999761581421
-406.02218330282813,1.6399999856948853
-404.85485095149124,-0.20000000298023224
-403.68774389253122,1.940000057220459
-402.5208620807698,2.4800000190734863
-401.35420547105241,0.11999999731779099
-400.18777401823172,2.7200000286102295
-399.02156767717497,-0.56000000238418579
-397.85558640275485,2.5999999046325684
-396.68983014985315,1
-395.52429887336984,1.940000057220459
-394.35899252820855,0.68000000715255737
-393.1939110692947,0.31999999284744263
-392.02905445155375,0.68000000715255737
-390.8644226299275,1.0399999618530273
-389.70001555936324,1.9199999570846558
-388.53583319482641,0.40000000596046448
-387.37187549128976,1.0800000429153442
-386.20814240373875,0.63999998569488525
-385.04463388716613,1.1000000238418579
-383.8813498965792,1
-382.71829038699252,2.5399999618530273
-381.55545531343887,2
-380.392844630951,0.34000000357627869
-379.23045829458351,0.6600000262260437
-378.06829625939463,1.8400000333786011
-376.90635848045895,-0.36000001430511475
-375.74464491285289,1.2200000286102295
-374.58315551167289,-2.1600000858306885
-373.42189023202263,1.3200000524520874
-372.26084902901857,2.619999885559082
-371.10003185778623,1.3400000333786011
-369.93943867346024,0.57999998331069946
-368.77906943119342,0.98000001907348633
-367.61892408613858,1.0199999809265137
-366.45900259346672,-1.0800000429153442
-365.29930490835977,2.9600000381469727
-364.13983098601057,1.8600000143051147
-362.98058078161557,0.56000000238418579
-361.82155425039127,3.2000000476837158
-360.66275134756324,0.5
-359.5041720283607,0.54000002145767212
-358.34581624803286,1.5
-357.18768396183805,1.5
-356.02977512504185,0.6600000262260437
-354.87208969291896,1.1599999666213989
-353.71462762076044,-0.019999999552965164
-352.55738886386462,0.11999999731779099
-351.400373377548,2.7599999904632568
-350.24358111712354,-0.47999998927116394
-349.08701203792953,2.2000000476837158
-347.93066609530615,-0.2800000011920929
-346.77454324460632,1.2200000286102295
-345.61864344119567,0.87999999523162842
-344.46296664044894,3.940000057220459
-343.30751279775541,1.6599999666213989
-342.15228186851164,-0.40000000596046448
-340.99727380812146,-0.23999999463558197
-339.84248857200873,0.14000000059604645
-338.68792611559365,2.0199999809265137
-337.53358639432554,1.6000000238418579
-336.37946936365006,2.0199999809265137
-335.2255749790329,2.7999999523162842
-334.07190319594883,4.3400001525878906
-332.918453969869,4.78000020980835
-331.76522725630093,5.3600001335144043
-330.61222301074304,5.5799999237060547
-329.45944118871012,7.28000020980835
-328.30688174573515,6.8000001907348633
-327.15454463734568,6.820000171661377
-326.00242981909287,5.78000020980835
-324.85053724653517,3.6600000858306885
-323.69886687524559,5.2600002288818359
-322.54741866080076,2.7000000476837158
-321.39619255879552,3.2599999904632568
-320.24518852482652,2.119999885559082
-319.09440651450677,2.9000000953674316
-317.9438464834584,0.98000001907348633
-316.79350838731807,2.2400000095367432
-315.64339218173154,3.2599999904632568
-314.49349782234822,0.87999999523162842
-313.34382526483751,2.7799999713897705
-312.19437446487791,0.20000000298023224
-311.04514537814794,3.119999885559082
-309.89613796035519,3.0799999237060547
-308.74735216720546,3.3199999332427979
-307.59878795441546,-0.54000002145767212
-306.45044527772006,2.440000057220459
-305.30232409285418,2.7000000476837158
-304.1544243555727,0.75999999046325684
-303.00674602163963,1.3600000143051147
-301.85928904682078,1.2599999904632568
-300.71205338690925,1.8400000333786011
-299.56503899768541,1.9199999570846558
-298.41824583496964,0.86000001430511475
-297.27167385456596,3
-296.12532301230749,1.5199999809265137
-294.97919326402553,1.7799999713897705
-293.83328456556956,2.0999999046325684
-292.6875968728,1.5800000429153442
-291.54213014158267,1.2599999904632568
-290.39688432779803,3.059999942779541
-289.25185938733557,2.9000000953674316
-288.10705527609389,0.87999999523162842
-286.96247194998614,2.2400000095367432
-285.81810936493457,2.0399999618530273
-284.67396747687235,0.11999999731779099
-283.53004624174173,4.4200000762939453
-282.38634561549406,2.0399999618530273
-281.24286555409708,0.81999999284744263
-280.09960601352395,2.7999999523162842
-278.95656694976424,1.6200000047683716
-277.81374831880566,2.3399999141693115
-276.67115007666143,1.5199999809265137
-275.52877217934838,3.8399999141693115
-274.38661458289062,3.3599998950958252
-273.24467724332862,1.6200000047683716
-272.10296011671562,3.7799999713897705
-270.961463159103,1.9199999570846558
-269.82018632656946,3.2400000095367432
-268.67912957519366,1.8400000333786011
-267.53829286106156,3.2999999523162842
-266.39767614028096,2.3199999332427979
-265.25727936895964,1.6200000047683716
-264.11710250322722,3.119999885559082
-262.97714549921329,1.4800000190734863
-261.8374083130584,2.3399999141693115
-260.6978909009249,5.0399999618530273
-259.55859321897515,2.0399999618530273
-258.41951522338059,1.2799999713897705
-257.28065687033632,4.4200000762939453
-256.14201811603016,2.440000057220459
-255.00359891667358,4.71999979019165
-253.86539922848715,2.6600000858306885
-252.7274190076987,4
-251.58965821054153,3.0999999046325684
-250.45211679326894,4.380000114440918
-249.31479471214516,4.8400001525878906
-248.17769192343076,3.4000000953674316
-247.04080838342088,2.5999999046325684
-245.90414404839248,3.619999885559082
-244.76769887465525,4.8400001525878906
-243.63147281852252,4
-242.49546583631673,5.0399999618530273
-241.35967788436938,2.2400000095367432
-240.22410891902837,5.119999885559082
-239.08875889664705,5.880000114440918
-237.95362777358059,6.2600002288818359
-236.81871550621872,2.7599999904632568
-235.6840220509439,5.7399997711181641
-234.54954736414584,5.1399998664855957
-233.41529140224156,5.940000057220459
-232.28125412163718,4.059999942779541
-231.14743547876969,6.7399997711181641
-230.0138354300725,4.5999999046325684
-228.88045393199536,6.619999885559082
-227.74729094100257,5.3400001525878906
-226.61434641355845,7.4600000381469727
-225.48162030614367,7.320000171661377
-224.349112575248,5.71999979019165
-223.21682317737577,7.940000057220459
-222.08475206903313,6.8400001525878906
-220.95289920674804,5.1399998664855957
-219.82126454705212,8.2799997329711914
-218.68984804648244,8.0799999237060547
-217.5586496615997,4.28000020980835
-216.427669348961,7.78000020980835
-215.29690706514521,6.820000171661377
-214.16636276673125,7.3000001907348633
-213.03603641032169,7.8600001335144043
-211.90592795251541,6.21999979019165
-210.77603734992772,10.319999694824219
-209.64636455919026,8.9399995803833
-208.51690953693469,8.5399999618530273
-207.38767223980722,8.3000001907348633
-206.25865262447223,9.7399997711181641
-205.12985064758868,9.0600004196167
-204.00126626584097,8.1000003814697266
-202.87289943590986,9.1000003814697266
-201.74475011450158,9.380000114440918
-200.61681825831874,9.9399995803833
-199.48910382408758,9.7399997711181641
-198.36160676853797,10.340000152587891
-197.23432704840525,11.239999771118164
-196.10726462043749,9.5399999618530273
-194.98041944140277,7.5799999237060547
-193.85379146806918,11.979999542236328
-192.72738065721751,9.1999998092651367
-191.6011869656395,10.039999961853027
-190.47521035013779,7.4800000190734863
-189.34945076753138,10.279999732971191
-188.22390817463383,11.199999809265137
-187.09858252828053,9.6400003433227539
-185.97347378531958,9
-184.84858190259911,10.960000038146973
-183.72390683699086,11.880000114440918
-182.59944854536116,12.420000076293945
-181.47520698460175,11.279999732971191
-180.35118211159897,9.6400003433227539
-179.22737388326641,11.779999732971191
-178.1037822565213,12.260000228881836
-176.9804071882827,13.279999732971191
-175.85724863548785,15.520000457763672
-174.73430655509037,14.920000076293945
-173.61158090404206,17.020000457763672
-172.48907163931108,18.200000762939453
-171.36677871787106,19.579999923706055
-170.24470209671563,20.6200008392334
-169.12284173284024,21.559999465942383
-168.00119758325309,24.079999923706055
-166.8797696049769,24.920000076293945
-165.75855775503624,25.340000152587891
-164.6375619904702,24.8799991607666
-163.51678226832883,26.920000076293945
-162.39621854567667,26.719999313354492
-161.27587077957287,26.8799991607666
-160.15573892710927,27.319999694824219
-159.03582294536864,32.040000915527344
-157.91612279145556,28.239999771118164
-156.79663842247828,31.540000915527344
-155.67736979555957,30.5
-154.55831686783313,28.840000152587891
-153.43947959643447,29.899999618530273
-152.32085793852275,30.459999084472656
-151.20245185125532,28.639999389648438
-150.08426129180589,29.920000076293945
-148.96628621735545,29.280000686645508
-147.84852658509953,30.600000381469727
-146.73098235223915,29.860000610351563
-145.61365347598803,33.340000152587891
-144.49653991357081,35.200000762939453
-143.3796416222176,35.599998474121094
-142.26295855917488,38.779998779296875
-141.14649068169638,37.7599983215332
-140.03023794704677,40.7400016784668
-138.91420031250163,41.400001525878906
-137.79837773533836,43.220001220703125
-136.68277017286164,43.840000152587891
-135.56737758237068,46.360000610351563
-134.45219992117563,50.2400016784668
-133.33723714661573,52.819999694824219
-132.22248921601567,53.680000305175781
-131.10795608672197,56.599998474121094
-129.99363771609387,61.119998931884766
-128.87953406149063,62.819999694824219
-127.76564508029878,68.760002136230469
-126.65197072989395,69.860000610351563
-125.53851096768085,74.680000305175781
-124.4252657510624,80.199996948242188
-123.31223503745423,85.279998779296875
-122.19941878428472,84.720001220703125
-121.08681694899133,93.05999755859375
-119.97442948901517,94.339996337890625
-118.8622563618228,95.580001831054688
-117.75029752487717,98.160003662109375
-116.63855293565393,103.48000335693359
-115.52702255164331,107.27999877929688
-114.41570633034462,111.26000213623047
-113.30460422925898,117.62000274658203
-112.19371620590573,123.5
-111.08304221782055,128.1199951171875
-109.97258222253549,139.47999572753906
-108.86233617759535,141.53999328613281
-107.75230404056492,148.96000671386719
-106.64248576901082,160.16000366210938
-105.53288132051239,164.97999572753906
-104.42349065265807,175.94000244140625
-103.31431372304178,184.10000610351563
-102.20535048927377,192.25999450683594
-101.09660090898069,201.08000183105469
-99.988064939780088,212.1199951171875
-98.879742539320432,222.52000427246094
-97.771633665246554,240.32000732421875
-96.6637382752142,251.89999389648438
-95.556056326899125,269.55999755859375
-94.448587777975263,283.07998657226563
-93.34133258613474,299.33999633789063
-92.234290709076959,320.17999267578125
-91.1274621045086,335.22000122070313
-90.020846730150879,353.98001098632813
-88.914444543732316,366.77999877929688
-87.808255502995962,378.760009765625
-86.7022795656867,381.89999389648438
-85.596516689563941,382.17999267578125
-84.490966832401682,375.8599853515625
-83.385629951977535,367.10000610351563
-82.280506006080032,370.48001098632813
-81.175594952508618,371.39999389648438
-80.070896749077292,377.94000244140625
-78.966411353598232,393.39999389648438
-77.862138723905446,404.92001342773438
-76.7580788178384,419.66000366210938
-75.654231593249278,437.32000732421875
-74.550597007988472,449.60000610351563
-73.447175019935457,465.48001098632813
-72.3439655869679,497.8800048828125
-71.240968666974368,523.52001953125
-70.138184217854359,559.97998046875
-69.035612197516457,587.239990234375
-67.933252563881979,589.97998046875
-66.831105274881338,589.70001220703125
-65.7291702884504,586.280029296875
-64.62744756254142,572.760009765625
-63.525937055112081,581.91998291015625
-62.424638724134638,590.44000244140625
-61.323552527588618,609.08001708984375
-60.222678423459,631.44000244140625
-59.122016369747143,670.58001708984375
-58.02156632446713,722.08001708984375
-56.92132824563123,750.46002197265625
-55.821302091271718,762.03997802734375
-54.721487819426329,736.70001220703125
-53.621885388145529,708.5
-52.522494755494336,659.47998046875
-51.423315879526854,630.780029296875
-50.324348718333567,622.760009765625
-49.225593230001323,640.0999755859375
-48.12704937262788,698.32000732421875
-47.028717104320094,820.97998046875
-45.930596383199372,1009.739990234375
-44.832687167392578,1156.4200439453125
-43.734989415037489,1257.8399658203125
-42.637503084284617,1311.3800048828125
-41.540228133289929,1411.9599609375
-40.443164520223945,1606.06005859375
-39.346312203260823,1941.5400390625
-38.249671140592909,2371.139892578125
-37.153241290412552,2707.840087890625
-36.057022610932108,2882.60009765625
-34.961015060369391,2911.580078125
-33.865218596949489,2953.860107421875
-32.769633178906588,2900.8798828125
-31.6742587644967,2743.39990234375
-30.579095311970377,2475.3798828125
-29.484142779594549,2236.080078125
-28.389401125643417,2082.1201171875
-27.29487030841301,1935.6400146484375
-26.200550286193902,1839.260009765625
-25.106441017293037,1737.300048828125
-24.012542460020995,1659.8199462890625
-22.918854572712007,1568.199951171875
-21.82537731370212,1535.6600341796875
-20.7321106413292,1478.1600341796875
-19.639054513960218,1417.280029296875
-18.546208889949412,1329.8599853515625
-17.453573727678304,1264.3399658203125
-16.361148985530235,1216.1800537109375
-15.268934621899461,1199.02001953125
-14.176930595191152,1171.1600341796875
-13.085136863823209,1164.199951171875
-11.993553386213534,1139.0799560546875
-10.902180120801859,1146.1400146484375
-9.8110170260297309,1125.8399658203125
-8.720064060353252,1102.4000244140625
-7.62932118223398,1072.3800048828125
-6.5387883501425677,939.02001953125
-5.448465522567858,630.260009765625
-4.3583526579986938,284.10000610351563
-3.2684497149384697,52.400001525878906
-2.1787566519033135,27.020000457763672
-1.0892734274111717,17.239999771118164
0,49.340000152587891
1.0890636717958841,225.75999450683594
2.1779176294185163,552.6199951171875
3.266561914309932,903.47998046875
4.354996567899434,1061.5400390625
5.443221631601773,1115.219970703125
6.5312371468298807,1158.6199951171875
7.6190431549803179,1171.4200439453125
8.7066396974460076,1196.8599853515625
9.7940268156035017,1210.219970703125
10.881204550825714,1232.6800537109375
11.968172944472826,1259.93994140625
13.054932037890467,1297.97998046875
14.141481872427903,1347.4599609375
15.227822489416212,1405.780029296875
16.313953930162825,1495.4200439453125
17.399876235997,1575.06005859375
18.485589448209794,1646.93994140625
19.571093608095907,1716.1199951171875
20.656388756942761,1786.9200439453125
21.74147493601231,1888.8800048828125
22.826352186579243,1988.4599609375
23.911020549890964,2101.919921875
24.995480067191238,2268.340087890625
26.079730779716556,2434.3798828125
27.163772728685217,2669.5400390625
28.247605955324616,2979.300048828125
29.331230500825768,3240.840087890625
30.414646406390602,3335.8798828125
31.49785371319922,3363.5400390625
32.58085246243354,3305.4599609375
33.663642695257295,3230.02001953125
34.746224452830575,2961.739990234375
35.828597776289826,2503.659912109375
36.910762706780588,2043.199951171875
37.992719285430212,1746.1600341796875
39.074467553356953,1582.02001953125
40.156007551660878,1512.280029296875
41.237339321447507,1444.9200439453125
42.318462903804175,1310.6199951171875
43.39937833980548,1119.239990234375
44.48008567053148,912.29998779296875
45.560584937029489,798.760009765625
46.6408761803541,753.6400146484375
47.720959441552623,752.03997802734375
48.80083476164873,776.3800048828125
49.880502181658812,818.97998046875
50.9599617426029,867.5999755859375
52.039213485481014,906.32000732421875
53.118257451287718,933.17999267578125
54.197093680997568,919.05999755859375
55.275722215592396,868.32000732421875
56.354143096026746,816.65997314453125
57.432356363258805,777.15997314453125
58.510362058235842,759.05999755859375
59.588160221886938,738.3800048828125
60.665750895142992,721.84002685546875
61.743134118913076,730.5999755859375
62.820309934106263,733.67999267578125
63.89727838161707,752.08001708984375
64.974039502334563,757.05999755859375
66.050593337131431,750.780029296875
67.12693992687673,720.760009765625
68.203079312430418,678.780029296875
69.2790115346379,644.760009765625
70.354736634337314,606.58001708984375
71.43025465235587,585.15997314453125
72.505565629522607,572.0999755859375
73.580669606635638,556.15997314453125
74.655566624502171,534.239990234375
75.730256723907587,520.3599853515625
76.804739945639085,508.48001098632813
77.879016330462036,494.6400146484375
78.953085919145451,496.44000244140625
80.026948752434691,490.45999145507813
81.10060487107512,503.92001342773438
82.174054315803,500.8800048828125
83.247297127336424,519.9000244140625
84.320333346397092,517.52001953125
85.39316301368126,512.55999755859375
86.465786169887,496.27999877929688
87.538202855701456,474.57998657226563
88.610413111804519,449.8800048828125
89.682416978852416,428.94000244140625
90.754214497510475,409.55999755859375
91.825805708424014,383.51998901367188
92.897190652229256,365.1400146484375
93.968369369558786,343.1400146484375
95.039341901027,324.5
96.110108287242838,308.5
97.180668568809779,294.8800048828125
98.251022786316753,280.45999145507813
99.321170980345414,271.72000122070313
100.39111319146468,258.39999389648438
101.46084946023984,247.55999755859375
102.53037982722162,234
103.59970433295166,224.25999450683594
104.66882301796431,213.19999694824219
105.73773592278485,207.44000244140625
106.8064430879258,196.05999755859375
107.87494455389424,188.82000732421875
108.94324036118269,179.52000427246094
110.01133055028004,172.67999267578125
111.07921516166243,163.89999389648438
112.1468942357933,158.82000732421875
113.21436781313787,154.75999450683594
114.28163593413956,147
115.3486986392345,144.05999755859375
116.41555596884973,143.1199951171875
117.48220796341775,136.16000366210938
118.54865466334195,131.6199951171875
119.61489610901845,128.6199951171875
120.68093234084154,121.95999908447266
121.74676339919642,120.04000091552734
122.81238932445376,110.54000091552734
123.87781015697874,109.31999969482422
124.94302593711836,103.27999877929688
126.00803670522509,95.419998168945313
127.07284250162593,94.360000610351563
128.13744336665695,86.94000244140625
129.20183934062334,83.040000915527344
130.26603046383752,79.680000305175781
131.33001677659377,77.879997253417969
132.3937983191845,73.699996948242188
133.4573751318876,68.94000244140625
134.52074725496641,69.800003051757813
135.58391472868425,66.379997253417969
136.6468775932899,63.479999542236328
137.70963588902487,63.959999084472656
138.77218965612155,61.419998168945313
139.83453893480146,56.959999084472656
140.89668376527698,56.540000915527344
141.95862418775323,53.659999847412109
143.02036024241897,53.439998626708984
144.0818919694666,49.200000762939453
145.14321940906302,46.979999542236328
146.20434260137881,51.479999542236328
147.26526158656816,48.2400016784668
148.32597640478161,50.5
149.38648709615154,51.2400016784668
150.4467937008103,47.919998168945313
151.50689625887571,52.020000457763672
152.5667948104583,48.919998168945313
153.62648939565406,52.599998474121094
154.68598005455897,50.959999084472656
155.74526682725445,48.799999237060547
156.8043497538074,47.080001831054688
157.86322887428469,47.419998168945313
158.9219042287441,45.919998168945313
159.98037585721977,42.900001525878906
161.03864379975494,45.119998931884766
162.096708096371,44.340000152587891
163.15456878708392,43.939998626708984
164.21222591190417,41.040000915527344
165.2696795108277,39.7400016784668
166.32692962384135,39.060001373291016
167.38397629092287,37.080001831054688
168.4408195520482,31.540000915527344
169.4974594471696,34.619998931884766
170.55389601624302,30.979999542236328
171.61012929921162,28.319999694824219
172.66615933600406,24.319999694824219
173.7219861665435,27.659999847412109
174.7776098307495,26.200000762939453
175.83303036851612,22.1200008392334
176.88824781974836,21.860000610351563
177.94326222432755,23.559999465942383
178.99807362213323,22.100000381469727
180.05268205302673,18.159999847412109
181.10708755687847,19.719999313354492
182.16129017352432,19.700000762939453
183.21528994280743,18.899999618530273
184.26908690456366,17.5
185.32268109860706,19.219999313354492
186.37607256475167,19.180000305175781
187.42926134280606,17.639999389648438
188.482247472557,17.239999771118164
189.53503099378759,17.739999771118164
190.58761194627914,18.479999542236328
191.63999036979294,16.079999923706055
192.692166304083,18.3799991607666
193.7441397888997,17.680000305175781
194.79591086397886,18.420000076293945
195.8474795690563,15.840000152587891
196.89884594384057,17.799999237060547
197.95001002804929,16.920000076293945
199.00097186138009,18.899999618530273
200.05173148352878,15.5600004196167
201.10228893417116,17.719999313354492
202.15264425298847,18.219999313354492
203.2027974796365,15.020000457763672
204.25274865377651,16.700000762939453
205.30249781504972,14.960000038146973
206.35204500309737,15.600000381469727
207.4013902575407,16.200000762939453
208.45053361800274,16.3799991607666
209.49947512409562,16.719999313354492
210.54821481540785,16.159999847412109
211.59675273154062,13.039999961853027
212.64508891206788,14.840000152587891
213.69322339656719,16.479999542236328
214.74115622459976,11.859999656677246
215.78888743571224,16.959999084472656
216.83641706946219,14.680000305175781
217.88374516537988,15.079999923706055
218.93087176298468,13.380000114440918
219.97779690180323,13.359999656677246
221.02452062133852,13.319999694824219
222.0710429610881,10.739999771118164
223.11736396054403,11.880000114440918
224.16348365918566,12.5
225.2094020964887,10.840000152587891
226.25511931190886,10.760000228881836
227.3006353449,10.859999656677246
228.34595023491056,10.619999885559082
229.39106402137622,9.2799997329711914
230.43597674371449,9.2799997329711914
231.48068844134468,8.2600002288818359
232.52519915367702,11.520000457763672
233.569508920109,8.5200004577636719
234.61361778002538,9.6000003814697266
235.65752577281455,8.9600000381469727
236.70123293784127,10.920000076293945
237.74473931446664,8.1999998092651367
238.78804494204451,10.119999885559082
239.83114985991779,8.6999998092651367
240.87405410742394,6.21999979019165
241.91675772388407,7.059999942779541
242.95926074861745,6.8600001335144043
244.00156322093062,7.5199999809265137
245.04366518011921,7.3600001335144043
246.08556666547338,6.78000020980835
247.12726771627604,5.1999998092651367
248.16876837179188,8.1999998092651367
249.21006867128381,6.0199999809265137
250.25116865401105,7.1599998474121094
251.29206835920559,4.9200000762939453
252.33276782611392,5.8000001907348633
253.37326709395347,5.619999885559082
254.41356620194165,5.7600002288818359
255.45366518928495,6.119999885559082
256.49356409518441,5.0799999237060547
257.53326295883016,3.059999942779541
258.57276181939596,4.880000114440918
259.61206071605739,7.179999828338623
260.65115968797545,5.8400001525878906
261.69005877429845,4.9200000762939453
262.72875801417831,5.6599998474121094
263.76725744674513,5.0799999237060547
264.80555711111992,4.059999942779541
265.84365704643096,6.059999942779541
266.88155729177379,4.3000001907348633
267.91925788625122,3.1600000858306885
268.95675886895515,6.0399999618530273
269.99406027896839,4.3000001907348633
271.03116215535192,4.8000001907348633
272.06806453717945,4.1399998664855957
273.10476746349923,4.3400001525878906
274.14127097334858,4.7399997711181641
275.17757510577758,3.1800000667572021
276.21367989980354,4.71999979019165
277.24958539444378,6.1399998664855957
278.28529162870836,3.1400001049041748
279.32079864159641,3.059999942779541
280.35610647209614,4.1599998474121094
281.39121515919214,2.0199999809265137
282.42612474185262,4.78000020980835
283.46083525904578,3.2999999523162842
284.49534674972347,4.1399998664855957
285.52965925283388,2.2200000286102295
286.56377280730703,4.4000000953674316
287.59768745207475,3.1800000667572021
288.63140322605432,3.7000000476837158
289.66492016815391,3.2200000286102295
290.6982383172799,3.5999999046325684
291.73135771231318,1.1000000238418579
292.76427839214739,3.0799999237060547
293.79700039564887,4.059999942779541
294.82952376168032,1.8200000524520874
295.86184852910264,3.440000057220459
296.89397473676581,2.940000057220459
297.92590242349979,2.3199999332427979
298.95763162813637,3.9800000190734863
299.9891623894946,4.1399998664855957
301.02049474638625,1.6200000047683716
302.05162873761219,3.7400000095367432
303.082564401966,3.8199999332427979
304.1133017782322,4.0199999809265137
305.14384090518251,0.60000002384185791
306.1741818215869,1.2999999523162842
307.20432456620438,4.4200000762939453
308.23426917777579,2.2799999713897705
309.26401569504924,1.3999999761581421
310.29356415674738,2.0999999046325684
311.32291460160013,3.6800000667572021
312.35206706831377,3.2200000286102295
313.38102159559276,3.6600000858306885
314.40977822213063,4.78000020980835
315.43833698661547,3.6600000858306885
316.46669792772627,3.440000057220459
317.49486108412748,6.440000057220459
318.52282649447989,6.679999828338623
319.55059419743338,10.880000114440918
320.5781642316324,9.5799999237060547
321.60553663570317,11.100000381469727
322.63271144827559,12.159999847412109
323.65968870795768,15.199999809265137
324.68646845335934,19.440000534057617
325.71305072307769,19.479999542236328
326.73943555570077,19.239999771118164
327.76562298980934,18.760000228881836
328.79161306396782,12.539999961853027
329.81740581674421,11.079999923706055
330.84300128668838,6.71999979019165
331.86839951234651,6.5
332.89360053224482,4.7399997711181641
333.9186043849204,4.440000057220459
334.9434111088849,3.2400000095367432
335.96802074264451,2.7799999713897705
336.9924333247036,-0.2199999988079071
338.016648893552,2.0999999046325684
339.04066748766672,2.0399999618530273
340.06448914552857,2.6400001049041748
341.08811390559458,2.0399999618530273
342.11154180632184,0.37999999523162842
343.13477288616014,-0.800000011920929
344.15780718354108,3.4800000190734863
345.1806447368981,0.23999999463558197
346.20328558465189,1.6000000238418579
347.22572976520678,0.75999999046325684
348.24797731697436,4.0199999809265137
349.2700282783444,0.18000000715255737
350.29188268769758,2.2000000476837158
351.3135405834164,0.62000000476837158
352.3350020038597,2.0999999046325684
353.35626698739179,0.98000001907348633
354.37733557236061,0.699999988079071
355.39820779711044,0.72000002861022949
356.41888369996741,-1.6799999475479126
357.43936331925579,1.3999999761581421
358.4596466932926,0.6600000262260437
359.47973386038029,1.2000000476837158
360.4996248588177,1.7000000476837158
361.51931972688908,-2
362.53881850287689,1.6000000238418579
363.55812122505267,1.3200000524520874
364.57722793167341,0.57999998331069946
365.59613866099608,0.30000001192092896
366.61485345126675,0.86000001430511475
367.63337234071332,0.75999999046325684
368.65169536756548,2.559999942779541
369.66982257004383,2.059999942779541
370.68775398635444,-0.75999999046325684
371.70548965469789,0.10000000149011612
372.7230296132675,0.15999999642372131
373.74037390024205,2.7000000476837158
374.75752255379666,0.89999997615814209
375.7744756120992,1.8799999952316284
376.79123311330659,-2.0799999237060547
377.80779509556305,1.6000000238418579
378.82416159700733,0.60000002384185791
379.84033265577273,0.81999999284744263
380.856308309978,-0.47999998927116394
381.87208859774,1.7799999713897705
382.88767355716118,1.2599999904632568
383.90306322633296,1.3999999761581421
384.918257643345,-1
385.933256846276,1.7599999904632568
386.94806087319375,2.1600000858306885
387.96266976215884,2.5399999618530273
388.97708355122268,0.98000001907348633
389.99130227842943,0.81999999284744263
391.005325981816,1.4600000381469727
392.01915469940104,0.36000001430511475
393.03278846921057,-0.51999998092651367
394.04622732924145,0.43999999761581421
395.05947131750145,-0.51999998092651367
396.072520471982,1.1200000047683716
397.08537483066175,1.059999942779541
398.09803443151395,1.6200000047683716
399.11049931250454,-0.43999999761581421
400.12276951158856,0.75999999046325684
401.13484506671739,1.4600000381469727
402.14672601582424,0.40000000596046448
403.15841239684596,-1.6399999856948853
404.16990424769574,0.15999999642372131
405.18120160629041,2.1600000858306885
406.19230451053772,-1.5
407.20321299832722,0.37999999523162842
408.21392710754844,-0.039999999105930328
409.22444687608004,-0.30000001192092896
410.2347723417879,-0.41999998688697815
411.24490354253794,0.46000000834465027
412.25484051617786,1.559999942779541
413.26458330055357,0.37999999523162842
414.27413193350003,0.86000001430511475
415.28348645284314,0.41999998688697815
416.29264689639967,1.3799999952316284
417.30161330197734,0.51999998092651367
418.310385707382,1.6399999856948853
419.31896415039773,0.87999999523162842
420.327348668814,0.56000000238418579
421.33553930040034,0.95999997854232788
422.34353608292622,0.62000000476837158
423.35133905414659,-0.11999999731779099
424.35894825181094,-1.5399999618530273
425.366363713656,0.68000000715255737
426.37358547742224,0.89999997615814209
427.38061358082268,1.2599999904632568
428.38744806157592,-0.46000000834465027
429.39408895738779,1.3400000333786011
430.40053630595321,-0.56000000238418579
431.40679014495618,-0.20000000298023224
432.41285051209161,1.6200000047683716
433.41871744501259,0.10000000149011612
434.42439098139221,-1.440000057220459
435.42987115888172,-0.11999999731779099
436.43515801512694,-1.9800000190734863
437.4402515877664,0.57999998331069946
438.44515191442224,0.5
439.44985903272209,-0.23999999463558197
440.45437298026809,0.40000000596046448
441.45869379467149,1.0199999809265137
442.4628215135217,1.0199999809265137
443.46675617440451,2.5999999046325684
444.47049781489659,1.2000000476837158
445.47404647256735,0.72000002861022949
446.47740218497347,-0.039999999105930328
447.480564989668,1.3799999952316284
448.483534924193,2.9600000381469727
449.48631202608703,0.36000001430511475
450.48889633286853,-0.6600000262260437
451.49128788205962,1.3799999952316284
452.49348671116604,1.059999942779541
453.49549285768262,0.72000002861022949
454.49730635911328,0.2199999988079071
455.49892725292921,1.5399999618530273
456.50035557661067,-0.8399999737739563
457.50159136762159,1.1000000238418579
458.50263466341676,0.36000001430511475
459.503485501451,-1.2200000286102295
460.50414391915729,2.1600000858306885
461.50460995397043,-0.15999999642372131
462.5048836433125,1.3799999952316284
463.50496502460373,2.559999942779541
464.50485413524257,1.7000000476837158
465.50455101262742,1.8600000143051147
466.50405569415489,1.4600000381469727
467.50336821719429,4.320000171661377
468.50248861912587,2.4800000190734863
469.50141693731166,5.3600001335144043
470.50015320910279,4.3000001907348633
471.49869747185039,5.3400001525878906
472.49704976288922,6
473.49521011955221,4.559999942779541
474.49317857915776,1.0199999809265137
475.49095517901515,3.1800000667572021
476.48853995643731,0.57999998331069946
477.48593294871353,2.7400000095367432
478.48313419313126,1.7200000286102295
479.48014372697253,0.14000000059604645
480.47696158750477,0.51999998092651367
481.47358781198818,-1.2200000286102295
482.47002243768111,0.41999998688697815
483.46626550182373,1.8200000524520874
484.46231704165621,0.77999997138977051
485.45817709440053,-0.6600000262260437
486.45384569728049,0.40000000596046448
487.44932288750715,0.62000000476837158
488.44460870228249,-0.36000001430511475
489.43970317880303,1.8400000333786011
490.4346063542489,0.93999999761581421
491.42931826580025,1.559999942779541
492.4238389506263,0.86000001430511475
493.41816844588539,0.63999998569488525
494.41230678873217,0.40000000596046448
495.40625401630859,-0.92000001668930054
496.40001016574752,0.18000000715255737
497.39357527418179,0.60000002384185791
498.3869493787206,0.25999999046325684
499.3801325164859,0.20000000298023224
500.37312472456688,1.7000000476837158
501.36592604006182,-0.41999998688697815
502.35853650005447,0.43999999761581421
503.35095614162128,-1.440000057220459
504.34318500183144,-0.25999999046325684
505.33522311774323,-0.30000001192092896
506.32707052640581,-2.6800000667572021
507.3187272648629,2.2799999713897705
508.31019337014914,-1.6399999856948853
509.30146887928822,-0.62000000476837158
510.29255382930023,1.8999999761581421
511.28344825719068,1.3799999952316284
512.27415219996328,1.9600000381469727
513.26466569460717,-0.2199999988079071
514.25498877810969,0.20000000298023224
515.24512148744543,0.699999988079071
516.23506385957626,-0.37999999523162842
517.22481593147131,-0.23999999463558197
518.214377740067,-0.54000002145767212
519.20374932231425,0.36000001430511475
520.19293071514585,1.559999942779541
521.18192195548909,0.77999997138977051
522.17072308025308,-0.68000000715255737
523.15933412635422,0.31999999284744263
524.14775513068525,2.2599999904632568
525.13598613014619,-0.81999999284744263
526.12402716160977,0.81999999284744263
527.11187826196146,1.3999999761581421
528.09953946806127,-1.4199999570846558
529.08701081677282,1.6000000238418579
530.07429234493793,1.1399999856948853
531.06138408940751,0.039999999105930328
532.048286087007,2.4000000953674316
533.03499837456729,1.7200000286102295
534.0215209889011,-0.51999998092651367
535.00785396682113,3.4200000762939453
535.99399734512008,0.89999997615814209
536.97995116059792,0.75999999046325684
537.965715450031,-0.039999999105930328
538.95129025019924,0.23999999463558197
539.93667559786809,1.2400000095367432
540.921871529792,1.1399999856948853
541.90687808272924,-0.23999999463558197
542.89169529341052,0.2800000011920929
543.87632319857767,-0.87999999523162842
544.86076183495788,0.699999988079071
545.84501123925838,0.2199999988079071
546.82907144819546,0.699999988079071
547.8129424984636,-1.3600000143051147
548.7966244267609,1.9199999570846558
549.78011726976547,0.77999997138977051
550.76342106415723,0.89999997615814209
551.74653584660155,-0.14000000059604645
552.7294616537547,0.2199999988079071
553.71219852227114,1.1000000238418579
554.69474648879077,-0.41999998688697815
555.677105589948,-1.7000000476837158
556.65927586237194,0.56000000238418579
557.64125734267327,0.68000000715255737
558.62305006746465,-0.89999997615814209
559.604654073346,-0.8399999737739563
560.58606939691163,-0.2199999988079071
561.56729607475063,0.039999999105930328
562.54833414342647,-0.8399999737739563
563.5291836395154,1.7799999713897705
564.50984459957726,1.059999942779541
565.490317060161,1.6799999475479126
566.4706010578102,2.2799999713897705
567.450696629061,-1.5
568.43060381044052,0.89999997615814209
569.41032263846137,0.72000002861022949
570.38985314963975,2.5999999046325684
571.36919538047732,4.28000020980835
572.348349367463,2.4600000381469727
573.32731514708939,0.8399999737739563
574.30609275582538,2.059999942779541
575.28468223014534,0.6600000262260437
576.26308360651274,3.2999999523162842
577.24129692136921,2.880000114440918
578.219322211171,-1.7799999713897705
579.197159512345,1.4800000190734863
580.17480886132762,0.8399999737739563
581.15227029453308,0
582.12954384837394,0.699999988079071
583.10662955925181,1.4800000190734863
584.08352746356286,2.4800000190734863
585.06023759769778,1.8600000143051147
586.03675999802908,1.2200000286102295
587.01309470092929,0.74000000953674316
587.98924174276181,0.89999997615814209
588.965201159881,-2.2000000476837158
589.940972988632,1.1799999475479126
590.916557265351,-0.46000000834465027
591.89195402637051,-0.059999998658895493
592.86716330800846,0.93999999761581421
593.84218514657914,0.800000011920929
594.81701957839141,2.7799999713897705
595.79166663973774,-0.6600000262260437
596.76612636690516,1.2000000476837158
597.74039879617885,1.6200000047683716
598.71448396382948,-0.31999999284744263
599.68838190611859,-0.54000002145767212
600.66209265930229,0.059999998658895493
601.63561625963666,0.37999999523162842
602.60895274334871,-1.4800000190734863
603.58210214668,0.36000001430511475
604.55506450584653,0.68000000715255737
605.52783985706992,0.57999998331069946
606.50042823655167,-0.40000000596046448
607.472829680497,0.81999999284744263
608.44504422508908,-1.0800000429153442
609.41707190651687,-0.60000002384185791
610.38891276095092,1.6000000238418579
611.36056682456,0.36000001430511475
612.332034133502,1
613.3033147239239,-1.440000057220459
614.2744086319708,1.5399999618530273
615.24531589377693,0.95999997854232788
616.216036545462,1.6000000238418579
617.18657062315287,1.8999999761581421
618.15691816295475,-0.800000011920929
619.12707920096727,-0.039999999105930328
620.09705377328282,0.37999999523162842
621.06684191599379,1.7400000095367432
622.03644366517074,-0.800000011920929
623.0058590568824,0.40000000596046448
623.97508812719207,-0.800000011920929
624.94413091215029,0.56000000238418579
625.912987447804,-0.34000000357627869
626.88165777019094,-0.6600000262260437
627.85014191533446,0.20000000298023224
628.81843991925962,-1.1200000047683716
629.78655181797694,-0.2800000011920929
630.75447764748969,0
631.72221744379385,-0.89999997615814209
632.68977124288176,0
633.65713908072576,3.0999999046325684
634.62432099330545,-1.3600000143051147
635.59131701657861,1.3799999952316284
636.55812718650486,-0.18000000715255737
637.52475153902742,1.7000000476837158
638.49119011009134,-0.10000000149011612
639.45744293562529,0.41999998688697815
640.42351005155251,1
641.38939149379257,0.15999999642372131
642.355087298245,0.2199999988079071
643.32059750081135,-1.940000057220459
644.28592213738557,-0.30000001192092896
645.25106124385456,0.46000000834465027
646.216014856087,-0.8399999737739563
647.18078300994785,2.440000057220459
648.1453657413058,0.059999998658895493
649.10976308600038,0.25999999046325684
650.07397507988208,1.9600000381469727
651.03800175878678,-0.37999999523162842
652.00184315853767,-2.8399999141693115
652.96549931495247,1.2599999904632568
653.92897026384526,0.81999999284744263
654.89225604101739,-0.2199999988079071
655.85535668226476,0.95999997854232788
656.81827222337415,-0.079999998211860657
657.78100270012328,0.11999999731779099
658.74354814828257,-0.10000000149011612
659.70590860361335,-1.2000000476837158
660.66808410187514,-1.6599999666213989
661.63007467881289,0.019999999552965164
662.59188037016247,-0.2199999988079071
663.55350121165611,-0.079999998211860657
664.514937239017,-2
665.47618848796083,1.5199999809265137
666.4372549941927,0.74000000953674316
667.39813679341023,-1.059999942779541
668.35883392130745,0.62000000476837158
669.31934641356565,-0.2800000011920929
670.27967430585886,0.10000000149011612
671.23981763385382,0.75999999046325684
672.19977643321,0.34000000357627869
673.15955073957775,1.1599999666213989
674.119140588602,1.4800000190734863
675.07854601591134,1.0199999809265137
676.03776705714154,2.3599998950958252
676.99680374790478,-1.2200000286102295
677.95565612381506,1.3600000143051147
678.91432422047183,-1.9199999570846558
679.87280807347634,0.18000000715255737
680.83110771841166,0.86000001430511475
681.78922319085541,0.37999999523162842
682.74715452638156,0.2199999988079071
683.70490176055318,0.92000001668930054
684.66246492892424,-0.2199999988079071
