-773.51195264083617,-0.46153846383094788
-772.26970635356884,-0.692307710647583
-771.02770412717837,1.807692289352417
-769.785945910744,1.3461538553237915
-768.5444316533667,0.076923079788684845
-767.30316130416213,-1.1538461446762085
-766.06213481226041,0.11538461595773697
-764.821352126799,1
-763.58081319693338,1.2692307233810425
-762.34051797182656,-0.92307692766189575
-761.10046640066685,-1.2692307233810425
-759.86065843263532,1.115384578704834
-758.62109401694215,0.26923078298568726
-757.38177310281208,0.26923078298568726
-756.14269563946254,1.384615421295166
-754.90386157614739,-2.346153736114502
-753.66527086213136,-0.30769231915473938
-752.42692344666466,1.3461538553237915
-751.188819279052,2.346153736114502
-749.95095830857281,0.15384615957736969
-748.71334048454628,0.38461539149284363
-747.47596575629541,1.307692289352417
-746.23883407314679,3
-745.00194538445612,0.8461538553237915
-743.76529963958274,-0.92307692766189575
-742.52889678790052,2.692307710647583
-741.29273677879792,1.7307692766189575
-740.05681956167064,0.038461539894342422
-738.82114508593622,1.5384615659713745
-737.5857133010195,-0.61538463830947876
-736.35052415635982,2.423076868057251
-735.11557760140022,1.4615384340286255
-733.88087358561643,3
-732.64641205848784,0.38461539149284363
-731.41219296949384,0.46153846383094788
-730.17821626814293,-1.5384615659713745
-728.94448190395451,2.423076868057251
-727.71098982645526,-0.42307692766189575
-726.47773998518278,-0.30769231915473938
-725.24473232970013,-0.11538461595773697
-724.01196680956673,-0.61538463830947876
-722.77944337437111,-0.23076923191547394
-721.5471619737018,0.96153843402862549
-720.31512255716552,-0.76923078298568726
-719.08332507438354,1.0384615659713745
-717.85176947499167,-0.11538461595773697
-716.62045570861846,2.423076868057251
-715.3893837249434,0.57692307233810425
-714.15855347362412,-0.88461536169052124
-712.92796490434375,-0.038461539894342422
-711.69761796680723,-1.423076868057251
-710.46751261071586,0.15384615957736969
-709.23764878579277,1.807692289352417
-708.00802644177929,1.692307710647583
-706.77864552840947,-0.76923078298568726
-705.549505995461,0.15384615957736969
-704.32060779268977,2.961538553237915
-703.09195086989894,1.307692289352417
-701.86353517687348,-1.807692289352417
-700.63536066343477,1.5
-699.40742727940051,-0.076923079788684845
-698.17973497461026,-0.5
-696.95228369891447,0.42307692766189575
-695.72507340217453,0.30769231915473938
-694.49810403426636,0.73076921701431274
-693.27137554508408,0.76923078298568726
-692.04488788451818,-0.42307692766189575
-690.81864100249186,2.538461446762085
-689.59263484892472,-1.423076868057251
-688.3668693737618,1.576923131942749
-687.1413445269518,0.076923079788684845
-685.91606025846522,2.076923131942749
-684.69101651826531,-1.9615384340286255
-683.466213256359,-0.38461539149284363
-682.24165042274217,0.88461536169052124
-681.01732796742908,-1.923076868057251
-679.79324584045207,-0.57692307233810425
-678.5694039918435,-0.076923079788684845
-677.34580237166847,0.15384615957736969
-676.12244092999572,-0.11538461595773697
-674.89931961689035,2.423076868057251
-673.67643838245749,-0.3461538553237915
-672.45379717679134,0.11538461595773697
-671.23139595001885,-1.1538461446762085
-670.00923465226333,-0.73076921701431274
-668.78731323367356,0.6538461446762085
-667.56563164439831,2.5
-666.34418983461183,0.8461538553237915
-665.122987754492,1.1538461446762085
-663.90202535423487,2.153846263885498
-662.68130258404017,2.076923131942749
-661.46081939413307,-0.92307692766189575
-660.240575734746,0.96153843402862549
-659.0205715561151,-0.57692307233810425
-657.80080680850187,-0.26923078298568726
-656.58128144217881,-0.96153843402862549
-655.361995407422,0.92307692766189575
-654.14294865453667,-0.076923079788684845
-652.9241411338171,2.153846263885498
-651.7055727955867,-0.38461539149284363
-650.48724359018706,-0.038461539894342422
-649.26915346794885,1.807692289352417
-648.05130237924277,-0.73076921701431274
-646.83369027443223,-0.92307692766189575
-645.61631710390611,1
-644.399182818046,-0.73076921701431274
-643.18228736727724,0.76923078298568726
-641.96563070201046,0.92307692766189575
-640.74921277268186,-0.807692289352417
-639.53303352973853,1.576923131942749
-638.31709292363485,0.57692307233810425
-637.101390904847,1.115384578704834
-635.88592742385481,1.3461538553237915
-634.67070243115631,1.0384615659713745
-633.45571587726045,2.538461446762085
-632.240967712687,0.692307710647583
-631.02645788797054,-0.3461538553237915
-629.81218635365985,0.692307710647583
-628.59815306031123,1.192307710647583
-627.38435795849182,1.2692307233810425
-626.17080099879786,-0.692307710647583
-624.95748213181469,0.61538463830947876
-623.7444013081531,-2.153846263885498
-622.53155847843846,2.269230842590332
-621.31895359330338,-2.230769157409668
-620.10658660339141,-0.19230769574642181
-618.89445745937155,-0.53846156597137451
-617.68256611190191,0.57692307233810425
-616.47091251167694,-0.92307692766189575
-615.2594966093875,1.384615421295166
-614.04831835574623,-0.038461539894342422
-612.83737770146945,0.38461539149284363
-611.62667459729528,1.6538461446762085
-610.41620899397276,0.88461536169052124
-609.20598084225821,-1.192307710647583
-607.99599009291524,1.1538461446762085
-606.7862366967438,-0.23076923191547394
-605.57672060452933,-0.15384615957736969
-604.36744176707907,1.5384615659713745
-603.15840013522575,1.384615421295166
-601.9495956597948,1.615384578704834
-600.74102829162985,-1.1538461446762085
-599.53269798159636,2.769230842590332
-598.32460468055979,0.38461539149284363
-597.11674833940742,-0.42307692766189575
-595.90912890903019,-0.076923079788684845
-594.70174634034447,0.8461538553237915
-593.49460058426666,-1.192307710647583
-592.28769159173135,-0.807692289352417
-591.08101931368037,1.5
-589.87458370107379,0
-588.66838470488256,-1.8461538553237915
-587.46242227609218,1.884615421295166
-586.25669636569182,-0.076923079788684845
-585.05120692469245,0.038461539894342422
-583.8459539041196,0.96153843402862549
-582.64093725499515,-0.076923079788684845
-581.43615692836647,1.1538461446762085
-580.23161287529365,-0.38461539149284363
-579.02730504684951,-1.2307692766189575
-577.82323339410868,-0.19230769574642181
-576.61939786817129,0.96153843402862549
-575.41579842013743,0.692307710647583
-574.21243500113269,0.26923078298568726
-573.00930756228081,2.730769157409668
-571.80641605473465,-0.692307710647583
-570.60376042964162,0.38461539149284363
-569.40134063817277,0.23076923191547394
-568.19915663151369,0.96153843402862549
-566.9972083608518,1
-565.79549577739454,-1.423076868057251
-564.594018832353,0.53846156597137451
-563.39277747696906,0.53846156597137451
-562.19177166247209,-1.5384615659713745
-560.99100134013133,0.807692289352417
-559.7904664612015,-0.15384615957736969
-558.59016697696461,-0.038461539894342422
-557.39010283871175,0.807692289352417
-556.19027399775041,-0.076923079788684845
-554.99068040538987,0.15384615957736969
-553.79132201296306,0.61538463830947876
-552.59219877181022,3.269230842590332
-551.39331063328973,1.0384615659713745
-550.19465754875273,1.576923131942749
-548.99623946958855,-0.5
-547.79805634717923,0.53846156597137451
-546.60010813293411,-2.423076868057251
-545.40239477826071,0.076923079788684845
-544.20491623458474,-0.57692307233810425
-543.0076724533501,1.576923131942749
-541.81066338600431,2.269230842590332
-540.6138889840131,0.076923079788684845
-539.41734919884766,0.11538461595773697
-538.22104398199917,-0.3461538553237915
-537.02497328496611,0.23076923191547394
-535.82913705926148,-0.88461536169052124
-534.63353525640559,1.384615421295166
-533.43816782793328,1.9615384340286255
-532.243034725403,-0.57692307233810425
-531.04813590036792,1.115384578704834
-529.85347130440277,-1.5
-528.65904088909519,0.57692307233810425
-527.46484460603642,-0.6538461446762085
-526.27088240683952,0.3461538553237915
-525.07715424312846,-0.96153843402862549
-523.88366006653268,2
-522.69039982870345,2.923076868057251
-521.49737348129383,0.76923078298568726
-520.30458097597693,-1.5
-519.11202226443311,-0.3461538553237915
-517.9196972983591,0.46153846383094788
-516.72760602945891,2.192307710647583
-515.53574840945657,-1.115384578704834
-514.34412439008338,2
-513.15273392307427,-1
-511.96157696019327,1.1538461446762085
-510.77065345320443,-1.192307710647583
-509.57996335388816,1.076923131942749
-508.38950661403396,-0.42307692766189575
-507.19928318545135,0.5
-506.009293019948,1.192307710647583
-504.81953606935895,0.23076923191547394
-503.63001228552639,-1.423076868057251
-502.44072162029261,1.5
-501.25166402552895,-0.23076923191547394
-500.06283945311225,2.230769157409668
-498.87424785493022,-0.23076923191547394
-497.68588918288151,0.8461538553237915
-496.4977633888866,1.692307710647583
-495.30987042485503,-0.38461539149284363
-494.12221024273822,-1.076923131942749
-492.93478279447845,-0.692307710647583
-491.74758803203986,0.26923078298568726
-490.5606259073993,1.7307692766189575
-489.37389637252818,-0.692307710647583
-488.1873993794361,1
-487.00113488013267,-0.96153843402862549
-485.8151028266293,1.5
-484.62930317096834,-1.0384615659713745
-483.44373586519578,-0.11538461595773697
-482.25840086136122,0.6538461446762085
-481.07329811153795,1
-479.88842756781014,1.7692307233810425
-478.70378918227289,0.57692307233810425
-477.51938290702128,0.61538463830947876
-476.33520869418317,2.346153736114502
-475.15126649588274,-0.38461539149284363
-473.96755626426784,-0.11538461595773697
-472.78407795148814,3.384615421295166
-471.60083150970968,0.38461539149284363
-470.41781689110212,0.23076923191547394
-469.23503404786607,0.46153846383094788
-468.05248293220211,-1.384615421295166
-466.87016349631995,1.2307692766189575
-465.68807569244927,2.192307710647583
-464.50621947281616,-1.384615421295166
-463.32459478968667,0.73076921701431274
-462.14320159531053,0.807692289352417
-460.96203984196472,-0.15384615957736969
-459.78110948193535,0.46153846383094788
-458.6004104675194,-1.0384615659713745
-457.419942751023,1.5
-456.239706284774,-0.88461536169052124
-455.05970102109859,1.423076868057251
-453.87992691234467,0.23076923191547394
-452.70038391086928,0.38461539149284363
-451.52107196904217,-1.615384578704834
-450.3419910392422,-0.3461538553237915
-449.16314107386461,-2
-447.98452202531189,-0.807692289352417
-446.80613384600474,0.38461539149284363
-445.62797648836386,0.96153843402862549
-444.45004990483903,0.30769231915473938
-443.27235404787461,-0.38461539149284363
-442.09488886994041,1.192307710647583
-440.91765432350803,1.5
-439.74065036106913,0
-438.56387693512079,-0.26923078298568726
-437.38733399817647,1.8461538553237915
-436.21102150276056,0.6538461446762085
-435.03493940140834,-0.19230769574642181
-433.859087646666,-0.6538461446762085
-432.6834661910907,1.307692289352417
-431.50807498725953,-0.6538461446762085
-430.33291398774963,-0.5
-429.15798314515814,-0.92307692766189575
-427.98328241209492,-0.46153846383094788
-426.80881174117167,-0.23076923191547394
-425.63457108502189,-0.96153843402862549
-424.46056039629184,-1.4615384340286255
-423.28677962762958,0.23076923191547394
-422.113228731705,-0.30769231915473938
-420.93990766119532,0.61538463830947876
-419.76681636878857,0
-418.59395480718376,-0.30769231915473938
-417.4213229290981,-1.9615384340286255
-416.24892068725239,-0.42307692766189575
-415.07674803439113,0.96153843402862549
-413.90480492325514,0.6538461446762085
-412.73309130660527,0.19230769574642181
-411.56160713721874,-0.30769231915473938
-410.39035236788004,-2
-409.21932695137548,0.88461536169052124
-408.04853084052229,1.384615421295166
-406.87796398813043,2.115384578704834
-405.70762634704261,-0.076923079788684845
-404.53751787009242,-0.5
-403.36763851014075,1.4615384340286255
-402.19798822004668,0.73076921701431274
-401.02856695269838,-1.6538461446762085
-399.85937466097494,-0.88461536169052124
-398.69041129778452,-1
-397.52167681603896,0.26923078298568726
-396.353171168661,-0.53846156597137451
-395.18489430858972,-1.0384615659713745
-394.01684618877334,0.692307710647583
-392.84902676217644,-0.42307692766189575
-391.68143598176539,1.923076868057251
-390.51407380052297,1.307692289352417
-389.3469401714483,-0.6538461446762085
-388.18003504754779,1.192307710647583
-387.01335838184059,1.5384615659713745
-385.84691012736039,-1.3461538553237915
-384.6806902371427,0.26923078298568726
-383.51469866424304,-0.38461539149284363
-382.34893536172967,-0.3461538553237915
-381.18340028268176,3.038461446762085
-380.01809338018211,-1.307692289352417
-378.85301460734081,0.19230769574642181
-377.68816391725704,0.23076923191547394
-376.52354126307,0.5
-375.35914659789887,0.15384615957736969
-374.19497987490831,0.42307692766189575
-373.03104104724662,-0.88461536169052124
-371.86733006808936,0.88461536169052124
-370.70384689061211,0.42307692766189575
-369.54059146801774,-1.0384615659713745
-368.37756375350727,0.57692307233810425
-367.21476370029814,-0.30769231915473938
-366.05219126162228,1
-364.8898463907135,0.30769231915473938
-363.72772904083467,0.42307692766189575
-362.56583916524323,2.192307710647583
-361.40417671721116,1.3461538553237915
-360.24274165003226,-0.61538463830947876
-359.081533917004,0.6538461446762085
-357.92055347143287,0.57692307233810425
-356.75980026664365,0.076923079788684845
-355.599274255972,-1.3461538553237915
-354.43897539276259,-0.3461538553237915
-353.27890363036749,0.42307692766189575
-352.11905892216055,-0.38461539149284363
-350.95944122151559,-0.15384615957736969
-349.80005048183375,1.4615384340286255
-348.64088665651252,0.807692289352417
-347.48194969896213,1.7307692766189575
-346.32323956261644,0.6538461446762085
-345.1647562009075,1.576923131942749
-344.00649956729103,-0.76923078298568726
-342.84846961522635,-0.38461539149284363
-341.69066629818008,-0.6538461446762085
-340.53308956964429,0.46153846383094788
-339.37573938310743,-1.3461538553237915
-338.2186156920834,-0.807692289352417
-337.06171845008612,1.384615421295166
-335.90504761065313,-0.30769231915473938
-334.74860312731835,1.1538461446762085
-333.59238495363388,-0.076923079788684845
-332.43639304317185,-0.6538461446762085
-331.28062734950618,-0.92307692766189575
-330.12508782622172,-1.0384615659713745
-328.96977442692332,2.692307710647583
-327.81468710521767,1.3461538553237915
-326.65982581472417,0.3461538553237915
-325.50519050908952,-0.42307692766189575
-324.35078114194584,-0.11538461595773697
-323.19659766695622,0.46153846383094788
-322.042640037791,0.15384615957736969
-320.88890820812412,0.30769231915473938
-319.73540213164961,0.53846156597137451
-318.58212176207417,-1.2307692766189575
-317.42906705310816,0.61538463830947876
-316.2762379584783,3.192307710647583
-315.12363443192226,-1.692307710647583
-313.9712564271922,-0.6538461446762085
-312.81910389803852,-0.6538461446762085
-311.66717679824615,-1.615384578704834
-310.51547508159092,1.884615421295166
-309.36399870186324,-1.384615421295166
-308.21274761287896,-0.30769231915473938
-307.0617217684503,-0.30769231915473938
-305.91092112241131,0.3461538553237915
-304.7603456285924,0.88461536169052124
-303.60999524085491,0.6538461446762085
-302.45986991305472,1.692307710647583
-301.30996959907316,-0.23076923191547394
-300.16029425279521,2.692307710647583
-299.01084382811496,1.692307710647583
-297.86161827894466,-0.46153846383094788
-296.71261755920386,1.115384578704834
-295.563841622823,0.692307710647583
-294.41529042374714,1.576923131942749
-293.26696391593214,0.42307692766189575
-292.11886205333758,1.076923131942749
-290.97098478994849,3.807692289352417
-289.82333207974989,3.115384578704834
-288.67590387674136,2.615384578704834
-287.52870013493884,3.769230842590332
-286.38172080835648,5.115384578704834
-285.23496585103931,2
-284.08843521702511,0.92307692766189575
-282.94212886037531,1.0384615659713745
-281.79604673515678,4.3076925277709961
-280.65018879545278,1.384615421295166
-279.50455499534473,0.6538461446762085
-278.359145288945,1.4615384340286255
-277.21395963036048,1
-276.06899797372535,2.384615421295166
-274.92426027316469,2.961538553237915
-273.77974648283453,1.692307710647583
-272.63545655689268,0.30769231915473938
-271.49139044950425,1.307692289352417
-270.34754811485618,3.038461446762085
-269.20392950714449,0.19230769574642181
-268.06053458056886,2.384615421295166
-266.91736328934348,2.538461446762085
-265.77441558769715,2.576923131942749
-264.631691429875,0.53846156597137451
-263.48919077011669,1.692307710647583
-262.34691356268377,2.653846263885498
-261.20485976185773,0.61538463830947876
-260.06302932191284,1.5384615659713745
-258.92142219715242,4.1923074722290039
-257.78003834187439,3.115384578704834
-256.63887771039481,1.076923131942749
-255.49794025705341,1.884615421295166
-254.35722593618084,2.038461446762085
-253.216734702135,2.961538553237915
-252.076466509272,1.2307692766189575
-250.93642131196611,3.192307710647583
-249.7965990646062,4.653846263885498
-248.65699972158654,1.2692307233810425
-247.51762323731782,5
-246.37846956621252,3.384615421295166
-245.23953866270131,3
-244.1008304812367,2.769230842590332
-242.96234497625483,2.076923131942749
-241.8240821022282,2.461538553237915
-240.68604181363298,3.692307710647583
-239.54822406495077,3.730769157409668
-238.41062881068319,4.3076925277709961
-237.27325600533186,3.346153736114502
-236.13610560342386,5.153846263885498
-234.99917755948991,2.538461446762085
-233.862471828068,3.615384578704834
-232.72598836371435,5
-231.58972712099603,5.6923074722290039
-230.45368805447833,5.4615383148193359
-229.3178711187611,5.153846263885498
-228.18227626843509,4.4615383148193359
-227.04690345811105,6.5384616851806641
-225.91175264241065,6.653846263885498
-224.77682377596102,7.653846263885498
-223.64211681341294,8.15384578704834
-222.507631709419,6.6923074722290039
-221.37336841863544,6.1923074722290039
-220.2393268957494,8.3846149444580078
-219.10550709544077,8.65384578704834
-217.97190897241308,9
-216.83853248137348,10
-215.70537757704551,8.6153850555419922
-214.57244421415817,11.192307472229004
-213.43973234745863,10.384614944458008
-212.3072419316959,11.307692527770996
-211.1749729216408,11.961538314819336
-210.042925272066,10.807692527770996
-208.91109893776047,10.076923370361328
-207.77949387352419,8.5384616851806641
-206.64811003416798,8.5384616851806641
-205.5169473745118,8.6153850555419922
-204.38600584938649,9.9615383148193359
-203.25528541363383,8.730769157409668
-202.12478602211559,8.230769157409668
-200.99450762968627,6.846153736114502
-199.86445019123312,7.1923074722290039
-198.73461366164156,7.346153736114502
-197.60499799580612,9.34615421295166
-196.47560314863586,7.5
-195.34642907505804,5
-194.21747572999993,7.884615421295166
-193.0887430684088,5.153846263885498
-191.96023104523192,7.230769157409668
-190.83193961544202,5.384615421295166
-189.70386873401003,5.153846263885498
-188.57601835592868,8.730769157409668
-187.44838843618891,7
-186.32097892980892,7.4615383148193359
-185.19378979179783,6.1923074722290039
-184.06682097719931,9.730769157409668
-182.94007244104978,8.34615421295166
-181.81354413840563,7.9615383148193359
-180.68723602432692,8.9230766296386719
-179.56114805389007,11.269230842590332
-178.43528018218967,8.6153850555419922
-177.30963236431307,10
-176.18420455537307,8.15384578704834
-175.05899671049156,8.3076925277709961
-173.93400878479952,12.076923370361328
-172.8092407334334,15.038461685180664
-171.68469251155148,11.192307472229004
-170.56036407431748,12.15384578704834
-169.43625537690059,12.884614944458008
-168.31236637449183,12.576923370361328
-167.18869702228221,16.423076629638672
-166.06524727548822,16.115385055541992
-164.94201708932451,16.423076629638672
-163.81900641901848,18
-162.69621521981026,16.538461685180664
-161.57364344695634,18.423076629638672
-160.45129105571505,20.961538314819336
-159.32915800136652,22.461538314819336
-158.20724423918546,22.80769157409668
-157.08554972447382,22.923076629638672
-155.96407441253541,23.115385055541992
-154.84281825868857,24.769229888916016
-153.72178121826437,26.730770111083984
-152.60096324659753,27.846153259277344
-151.48036429904278,29.961538314819336
-150.35998433095847,30.038461685180664
-149.23982329771206,32
-148.11988115469831,35.423076629638672
-147.0001578572992,34.653846740722656
-145.88065336092768,38.615383148193359
-144.76136762099122,41.5
-143.64230059293004,43.230770111083984
-142.5234522321698,42.384616851806641
-141.40482249415982,44.5
-140.28641133436759,49.576923370361328
-139.16821870825697,51.692306518554688
-138.05024457131003,51.384616851806641
-136.93248887901791,54.230770111083984
-135.81495158688631,57.692306518554688
-134.69763265042639,60.653846740722656
-133.58053202516567,60.615383148193359
-132.46364966663896,61.346153259277344
-131.34698553039198,62.384616851806641
-130.23053957198317,62.615383148193359
-129.11431174697645,65.576919555664063
-127.99830201095756,59.730770111083984
-126.8825103195104,62.076923370361328
-125.76693662824073,59.538459777832031
-124.65158089275792,59.846153259277344
-123.53644306868227,60.615383148193359
-122.42152311165228,57.769229888916016
-121.30682097731187,56.269229888916016
-120.19233662130864,56.615383148193359
-119.07806999931199,55.961540222167969
-117.96402106700589,57.038459777832031
-116.85018978006883,55.230770111083984
-115.73657609419934,54.884616851806641
-114.62317996511774,55.423076629638672
-113.51000134852802,55.884616851806641
-112.39704020017234,57.730770111083984
-111.28429647578741,55
-110.17177013112814,56.807693481445313
-109.05946112195488,55.807693481445313
-107.94736940404619,59.769229888916016
-106.83549493318606,59.538459777832031
-105.72383766516577,57.692306518554688
-104.612397555793,65.153846740722656
-103.50117456088628,64.884613037109375
-102.39016863627148,64.153846740722656
-101.27937973778899,70.384613037109375
-100.16880782129374,76.846153259277344
-99.058452842637053,82.807693481445313
-97.9483147576957,85.923080444335938
-96.838393522348269,94.692306518554688
-95.728689092489731,92.769233703613281
-94.6192014240205,94.153846740722656
-93.509930472861015,88.538459777832031
-92.400876194924422,88.5
-91.2920385461548,84.192306518554688
-90.183417482501682,82.730766296386719
-89.075012959910964,86.538459777832031
-87.9668249343631,86.5
-86.85885336182946,91.576919555664063
-85.751098198299587,92.5
-84.643559399773949,96.769233703613281
-83.536236922265743,97.269233703613281
-82.429130721789988,96.884613037109375
-81.322240754388986,94.846153259277344
-80.215566976095943,96.230766296386719
-79.109109342967713,94.269233703613281
-78.002867811070246,93
-76.896842336478585,95.423080444335938
-75.791032875273231,94.884613037109375
-74.685439383558332,98.961540222167969
-73.580061817436217,105.42308044433594
-72.474900133025585,107.57691955566406
-71.3699542864506,116.46154022216797
-70.265224233859044,123.11538696289063
-69.160709931396923,131.73077392578125
-68.05641133521749,147.88461303710938
-66.952328401503109,162.30769348144531
-65.848461086430689,190.26922607421875
-64.7448093461935,216.19230651855469
-63.641373136992115,247.65383911132813
-62.538152415045261,269.15383911132813
-61.435147136569867,301.5384521484375
-60.332357257806507,333.07693481445313
-59.229782735001208,364.9615478515625
-58.127423524405458,402.15383911132813
-57.025279582292569,412.38461303710938
-55.923350864935855,411.23077392578125
-54.821637328623183,397.5
-53.720138929656969,379.19232177734375
-52.618855624345088,360.69232177734375
-51.517787369006328,349.80767822265625
-50.41693411997403,342.5384521484375
-49.316295833586992,357.5
-48.215872466198562,377.84616088867188
-47.115663974169365,410.5
-46.015670313878218,443.9615478515625
-44.915891441702115,470.34616088867188
-43.816327314034424,487.57693481445313
-42.716977887288522,489.38461303710938
-41.617843117875964,472.5384521484375
-40.518922962221041,481.0384521484375
-39.420217376760775,502.26922607421875
-38.3217263179431,541.76922607421875
-37.223449742226876,621.23077392578125
-36.125387606081858,752.65386962890625
-35.027539865983272,919.76922607421875
-33.929906478420889,1014.576904296875
-32.832487399897218,928.8846435546875
-31.735282586923859,756.73077392578125
-30.638291996019689,613.0384521484375
-29.541515583716318,526.73077392578125
-28.44495330655991,483.73077392578125
-27.348605121096625,501.76922607421875
-26.252470983896274,501.19232177734375
-25.156550851528664,483.84616088867188
-24.060844680578157,509.69232177734375
-22.965352427649123,646.8846435546875
-21.870074049333198,880.1153564453125
-20.775009502252942,991.4615478515625
-19.680158743038191,812.6153564453125
-18.585521728322419,598.15386962890625
-17.491098414751832,458.23077392578125
-16.396888758989007,382.69232177734375
-15.302892717698342,346.38461303710938
-14.209110247560602,309.88461303710938
-13.115541305269289,308.88461303710938
-12.022185847514265,304.88461303710938
-10.929043831019953,304.0384521484375
-9.8361152124980435,304.9615478515625
-8.7433999486820539,308.4615478515625
-7.65089799631096,307.30767822265625
-6.5586093121492013,290.15383911132813
-5.466533852946668,220.73077392578125
-4.3746715754823526,64
-3.2830224365425238,20.653846740722656
-2.1915863929170882,28.30769157409668
-1.1003634014141426,42.269229888916016
-0.0093534188454214018,61.038459777832031
1.0814435979573318,40.807693481445313
2.1720276921641926,14.807692527770996
3.2623989069197705,16.230770111083984
4.35255728537777,78.346153259277344
5.4425028706609737,243.92308044433594
6.5322357058976195,305.4615478515625
7.6217558341977565,309.4615478515625
8.7110632986587,305.07693481445313
9.8001581423777679,312.34616088867188
10.889040408424989,310.15383911132813
11.977710139883129,314.15383911132813
13.06616737980039,324.9615478515625
14.154412171230433,344.69232177734375
15.242444557208728,377.19232177734375
16.330264580770745,434.42306518554688
17.417872284928308,537.30767822265625
18.50526771269142,705.5384521484375
19.592450907051898,955.73077392578125
20.679421910997917,1057.8846435546875
21.766180767510377,853.23077392578125
22.852727519550172,624.5
23.939062210076372,530.1153564453125
25.025184882029862,530.5
26.111095578347886,547.923095703125
27.196794341953137,538.80767822265625
28.28228121576285,544.80767822265625
29.367556242677892,605.423095703125
30.452619465586395,710.15386962890625
31.537470927380127,895.576904296875
32.622110670923576,1067.9615478515625
33.706538739086682,1119.423095703125
34.790755174713922,981.423095703125
35.874760020649774,795.73077392578125
36.95855331972416,666.69232177734375
38.04213511476155,595.26922607421875
39.125505448568219,562.69232177734375
40.208664363943171,542.80767822265625
41.291611903676312,541.80767822265625
42.37434811055391,560.76922607421875
43.45687302733495,565.6153564453125
44.539186696785691,543.73077392578125
45.621289161648747,512.576904296875
46.703180464664911,477.38461303710938
47.784860648560425,441.07693481445313
48.866329756052437,415.76922607421875
49.947587829856275,408.73077392578125
51.028634912656344,413.69232177734375
52.109471047146144,433.76922607421875
53.190096275999167,454.9615478515625
54.270510641885267,481.9615478515625
55.350714187454287,501.5384521484375
56.430706955356072,500.11538696289063
57.5104889882241,493.11538696289063
58.590060328684558,458.23077392578125
59.669421019347283,411.4615478515625
60.7485711028221,373.4615478515625
61.82751062170064,337.65383911132813
62.906239618561813,313.9615478515625
63.984758135989978,278.30767822265625
65.063066216536754,244.76922607421875
66.141163902764674,214.92308044433594
67.219051237207168,189.92308044433594
68.29672826240494,170.96153259277344
69.374195020876869,160.03846740722656
70.4514515551291,148.61538696289063
71.528497907673227,138.88461303710938
72.605334120997213,136.30769348144531
73.681960237579915,132.19230651855469
74.758376299892916,129.38461303710938
75.8345823503987,126.57691955566406
76.910578431545218,124.80769348144531
77.986364585774936,127.76923370361328
79.061940855521243,126.26923370361328
80.137307283193877,127.07691955566406
81.212463911211671,126.92308044433594
82.28741078197163,133.69230651855469
83.362147937861664,127.42308044433594
84.436675421262407,131.46153259277344
85.51099327454358,124.53845977783203
86.58510154006035,126.26923370361328
87.659000260162429,119
88.7326894771868,118.96154022216797
89.80616923346679,116.88461303710938
90.879439571315743,120.65384674072266
91.952500533045168,121.34615325927734
93.025352160946568,124.15384674072266
94.097994497313266,131.76922607421875
95.170427584422214,136
96.242651464532173,133.30769348144531
97.314666179911,124.61538696289063
98.386471772804725,115.80769348144531
99.458068285441186,109.07691955566406
100.52945576005368,101.34615325927734
101.60063423885185,96.5
102.67160376405081,93.461540222167969
103.74236437784384,92.153846740722656
104.81291612240966,87.769233703613281
105.88325903993427,88.461540222167969
106.95339317257822,85.076919555664063
108.02331856250021,82.923080444335938
109.09303525183896,85.615386962890625
110.16254328273681,82.115386962890625
111.23184269731064,85.076919555664063
112.30093353768643,84.538459777832031
113.36981584596106,83.692306518554688
114.43848966423138,83.769233703613281
115.50695503458155,85.846153259277344
116.57521199908842,82.653846740722656
117.64326059981613,81.807693481445313
118.71110087881789,90.038459777832031
119.77873287813418,84.769233703613281
120.8461566398073,88.923080444335938
121.91337220585774,91.230766296386719
122.98037961829687,93.961540222167969
124.04717891912696,96.384613037109375
125.11377015035214,97.538459777832031
126.18015335394557,97.576919555664063
127.24632857188772,96.884613037109375
128.31229584614084,99.192306518554688
129.37805521865448,95.923080444335938
130.44360673138181,97.769233703613281
131.50895042624506,97.269233703613281
132.57408634517378,95.846153259277344
133.63901453007747,95.615386962890625
134.70373502286202,93.615386962890625
135.76824786542602,89.269233703613281
136.83255309964807,84.384613037109375
137.89665076739402,83.346153259277344
138.96054091054066,77.846153259277344
140.024223570932,76.076919555664063
141.08769879041392,70.769233703613281
142.1509666108177,71.923080444335938
143.214027073971,66.576919555664063
144.27688022168513,64
145.33952609575863,63
146.40196473799006,61
147.46419619015978,55.615383148193359
148.52622049404272,53.884616851806641
149.58803769140104,51.961540222167969
150.64964782398602,51.346153259277344
151.71105093354345,46.307693481445313
152.77224706180459,45.538459777832031
153.83323625049343,45.961540222167969
154.89401854132302,42.076923370361328
155.95459397599734,42.230770111083984
157.01496259620762,40.615383148193359
158.07512444363783,37.576923370361328
159.13507955996283,35.384616851806641
160.19482798684112,34.076923370361328
161.25436976592937,34.576923370361328
162.31370493887334,32.230770111083984
163.37283354730243,29.19230842590332
164.4317556328424,31.19230842590332
165.49047123710079,30
166.54898040169246,27.115385055541992
167.60728316820132,27.423076629638672
168.66537957821311,26.038461685180664
169.72326967330264,24.615385055541992
170.780953495032,25.846153259277344
171.83843108495967,22.961538314819336
172.89570248462041,21.115385055541992
173.95276773555634,21.038461685180664
175.00962687929132,22
176.06627995733652,19.615385055541992
177.12272701119764,20.384614944458008
178.178968082364,18.30769157409668
179.23500321232495,18.269229888916016
180.2908324425498,18
181.34645581451332,17.80769157409668
182.40187336966119,19.923076629638672
183.45708514943908,13.34615421295166
184.51209119528539,17
185.56689154862397,14.65384578704834
186.62148625086775,16.884614944458008
187.67587534342056,11.65384578704834
188.7300588676826,15.15384578704834
189.78403686503225,14.192307472229004
190.83780937685697,14.076923370361328
191.89137644451148,12.538461685180664
192.94473810935415,13.34615421295166
193.9978944127306,14.307692527770996
195.050845395981,13.769230842590332
196.10359110042373,13.230769157409668
197.15613156738254,13.923076629638672
198.20846683816126,14.038461685180664
199.26059695405638,14.961538314819336
200.31252195635352,16.69230842590332
201.36424188632918,17.538461685180664
202.4157567852526,19.884614944458008
203.4670666943839,18.538461685180664
204.51817165496323,20
205.56907170823069,20.346153259277344
206.61976689541734,23.230770111083984
207.670257257736,24.19230842590332
208.72054283640318,24.076923370361328
209.77062367260442,25.076923370361328
210.820499807538,26.846153259277344
211.8701712823804,24.615385055541992
212.91963813829716,25.461538314819336
213.96890041645383,24.076923370361328
215.01795815799051,23.423076629638672
216.06681140405453,23.230770111083984
217.11546019577327,19.5
218.16390457426678,21.423076629638672
219.2121445806406,19.615385055541992
220.26018025599478,20.346153259277344
221.30801164143122,17.461538314819336
222.35563877801724,15.307692527770996
223.40306170683289,13.692307472229004
224.45028046893094,13.807692527770996
225.49729510536963,12.961538314819336
226.54410565718536,13.269230842590332
227.59071216541633,10
228.6371146710826,11.269230842590332
229.68331321518963,12.038461685180664
230.72930783874654,9.8846149444580078
231.77509858274425,8.8076925277709961
232.82068548816642,9.65384578704834
233.86606859598396,10.5
234.91124794716416,8.6153850555419922
235.95622358265609,7.346153736114502
237.00099554340886,8.9615383148193359
238.04556387035336,8.769230842590332
239.08992860441322,7.846153736114502
240.13408978650659,8
241.1780474575371,10.384614944458008
242.22180165840109,7
243.26535242998034,5.07692289352417
244.30869981315118,7.730769157409668
245.35184384878812,6.269230842590332
246.39478457773839,5.884615421295166
247.43752204085104,7.269230842590332
248.48005627896237,6.6923074722290039
249.52238733290687,5.57692289352417
250.56451524348995,8.9230766296386719
251.60644005152972,4.9615383148193359
252.64816179782065,6.92307710647583
253.68968052315358,7.3076925277709961
254.730996268303,9.0769233703613281
255.77210907403787,6.1923074722290039
256.81301898112542,6.42307710647583
257.85372603030919,6.1923074722290039
258.89423026233089,5.884615421295166
259.93453171791953,5.57692289352417
260.9746304377968,7.384615421295166
262.01452646267171,4.4615383148193359
263.05421983325323,4.653846263885498
264.09371059022669,8
265.13299877427562,7.346153736114502
266.1720844260708,7.57692289352417
267.21096758627755,4.384615421295166
268.24964829555029,8.230769157409668
269.2881265945307,6.07692289352417
270.32640252385318,7.5
271.3644761241394,5.9615383148193359
272.40234743601104,4.6923074722290039
273.44001650006248,5.8076925277709961
274.47748335689721,5.6923074722290039
275.51474804710051,5.653846263885498
276.55181061124858,1.384615421295166
277.58867108990307,5.730769157409668
278.6253295236238,5.769230842590332
279.66178595296151,7.115384578704834
280.69804041844691,3.807692289352417
281.73409296061618,6.5
282.76994361998004,6.846153736114502
283.805592437051,9.8076925277709961
284.84103945233073,9.730769157409668
285.87628470630625,13.115385055541992
286.91132823945736,14.615385055541992
287.94617009225294,13.15384578704834
288.98081030516005,9.4230766296386719
290.01524891862209,8.34615421295166
291.04948597308794,5.8076925277709961
292.08352150898645,6.730769157409668
293.11735556673921,6.115384578704834
294.1509881867587,4.346153736114502
295.18441940945377,3.884615421295166
296.21764927521144,5.653846263885498
297.25067782442056,1.5384615659713745
298.2835050974536,2.5
299.31613113467938,1.5
300.34855597644855,2.153846263885498
301.38077966311357,2.923076868057251
302.41280223500326,2.961538553237915
303.44462373245005,5.384615421295166
304.47624419576641,2.807692289352417
305.50766366526477,2
306.53888218124666,1.6538461446762085
307.56989978399361,1.8461538553237915
308.60071651379076,3.961538553237915
309.63133241090145,3.423076868057251
310.66174751559265,2.423076868057251
311.69196186811314,-0.19230769574642181
312.72197550869896,2.807692289352417
313.7517884775898,4.92307710647583
314.78140081500351,0.30769231915473938
315.81081256115249,4.230769157409668
316.84002375624368,1.2307692766189575
317.86903444046584,2.692307710647583
318.89784465400771,1.8461538553237915
319.92645443703987,1.2692307233810425
320.95486382973104,3.115384578704834
321.98307287223361,0.038461539894342422
323.01108160469812,2.115384578704834
324.03889006725694,2.653846263885498
325.06649830004426,2.076923131942749
326.09390634316696,2.230769157409668
327.12111423674287,0.76923078298568726
328.14812202086614,0.3461538553237915
329.1749297356273,1.2692307233810425
330.20153742110597,-0.038461539894342422
331.22794511737266,1.0384615659713745
332.25415286449424,1.9615384340286255
333.28016070251033,0.73076921701431274
334.30596867147324,4.230769157409668
335.33157681140983,1.0384615659713745
336.356985162347,1.884615421295166
337.38219376429515,1.2692307233810425
338.40720265726304,1.807692289352417
339.4320118812393,0.38461539149284363
340.45662147621442,1.115384578704834
341.48103148216251,2.230769157409668
342.50524193905039,1.1538461446762085
343.52925288683764,1.3461538553237915
344.55306436546562,2.346153736114502
345.57667641487933,0.88461536169052124
346.60008907500196,1.423076868057251
347.62330238575669,3.115384578704834
348.6463163870576,1.307692289352417
349.66913111879694,2.153846263885498
350.691746620867,1.307692289352417
351.71416293315815,0.23076923191547394
352.73638009553179,1.576923131942749
353.75839814785832,2.653846263885498
354.78021712998816,-0.038461539894342422
355.80183708176628,1.384615421295166
356.82325804302855,0.11538461595773697
357.84448005359627,0.038461539894342422
358.86550315329259,2.115384578704834
359.88632738192064,0.61538463830947876
360.90695277927625,1.0384615659713745
361.9273793851462,0.692307710647583
362.94760723931722,1.3461538553237915
363.9676363815488,1.807692289352417
364.98746685160586,1.7307692766189575
366.00709868923332,1.9615384340286255
367.02653193418337,3.076923131942749
368.0457666261791,1.076923131942749
369.06480280494725,2.115384578704834
370.08364051019453,1.9615384340286255
371.10227978162948,2.230769157409668
372.12072065894608,-1
373.13896318183288,0.57692307233810425
374.15700738995474,0.96153843402862549
375.17485332298929,0.46153846383094788
376.1925010205905,1.0384615659713745
377.20995052240505,1.8461538553237915
378.22720186806691,2.307692289352417
379.24425509721186,0
380.26111024945749,2.961538553237915
381.27776736441228,1.384615421295166
382.29422648167929,3.769230842590332
383.31048764085062,1.5
384.3265508815075,2.807692289352417
385.34241624322385,2.846153736114502
386.35808376556452,2.038461446762085
387.37355348807978,2.769230842590332
388.38882545031993,3.807692289352417
389.40389969181524,4.5
390.41877625210145,4.615384578704834
391.433455170687,1.307692289352417
392.447936487084,2.769230842590332
393.46222024079,1.1538461446762085
394.476306471297,2.076923131942749
395.49019521808259,0.692307710647583
396.50388652061883,0.30769231915473938
397.51738041836506,1.615384578704834
398.530676950777,1.2692307233810425
399.54377615729936,3.076923131942749
400.55667807736063,-0.26923078298568726
401.5693827503892,2.192307710647583
402.5818902157971,-0.38461539149284363
403.59420051299639,1
404.60631368137911,3
405.61822976033545,0.38461539149284363
406.62994878923928,0.38461539149284363
407.64147080746443,1.384615421295166
408.6527958543702,2.653846263885498
409.66392396930314,-0.19230769574642181
410.67485519161164,1.0384615659713745
411.68558956062407,1.4615384340286255
412.69612711565969,2.576923131942749
413.70646789603961,0.692307710647583
414.71661194106127,2.807692289352417
415.72655929002758,1.307692289352417
416.73630998222143,0.6538461446762085
417.745864056913,-0.3461538553237915
418.75522155338149,1.7692307233810425
419.76438251087711,0.19230769574642181
420.77334696865182,-0.23076923191547394
421.78211496594486,1.2307692766189575
422.79068654198818,-0.076923079788684845
423.79906173600284,-1.7307692766189575
424.80724058720261,1.5384615659713745
425.81522313478672,1.8461538553237915
426.82300941795256,2.692307710647583
427.83059947589027,-1.1538461446762085
428.8379933477645,3.153846263885498
429.84519107274537,3.230769157409668
430.85219268999572,0.92307692766189575
431.85899823866021,2.769230842590332
432.86560775787439,-0.807692289352417
433.87202128677382,-2.461538553237915
434.8782388644795,2.153846263885498
435.88426053009243,0.88461536169052124
436.89008632272635,1
437.89571628147496,1.576923131942749
438.9011504454138,-0.61538463830947876
439.90638885362387,0.92307692766189575
440.91143154516431,0.807692289352417
441.91627855910519,2.230769157409668
442.92092993447841,0.61538463830947876
443.92538571033219,1.192307710647583
444.92964592569297,2.346153736114502
445.93371061957805,1.192307710647583
446.93757983100477,-0.076923079788684845
447.94125359896861,2.192307710647583
448.94473196246508,0.19230769574642181
449.94801496047694,1.7307692766189575
450.95110263197967,1.3461538553237915
451.953995015936,1.6538461446762085
452.95669215130511,-1.384615421295166
453.95919407703332,0.30769231915473938
454.96150083205976,-2.461538553237915
455.96361245530716,1.3461538553237915
456.96552898570553,1.923076868057251
457.96725046215579,3.307692289352417
458.96877692356611,-0.38461539149284363
459.97010840882649,2.153846263885498
460.971244956816,2.538461446762085
461.972186606421,1.7692307233810425
462.97293339649332,0.88461536169052124
463.97348536589743,0.692307710647583
464.97384255347788,-1.4615384340286255
465.97400499807009,1.8461538553237915
466.97397273850584,-0.076923079788684845
467.97374581360418,2.769230842590332
468.97332426217872,-1.0384615659713745
469.9727081230285,-0.73076921701431274
470.97189743494346,0.5
471.97089223671173,0.8461538553237915
472.96969256710508,2.384615421295166
473.96829846489163,0.6538461446762085
474.96670996882312,2.153846263885498
475.96492711765313,-0.23076923191547394
476.96294995011704,0.96153843402862549
477.96077850494112,-0.61538463830947876
478.958412820848,1.923076868057251
479.95585293654949,2.423076868057251
480.95309889074997,3.269230842590332
481.95015072213755,1.0384615659713745
482.94700846940214,3.192307710647583
483.94367217121362,1.115384578704834
484.94014186624008,-1.2692307233810425
485.93641759313687,3.115384578704834
486.93249939055568,0.42307692766189575
487.92838729713003,0.19230769574642181
488.92408135149708,0.3461538553237915
489.91958159227397,2.769230842590332
490.91488805807057,0.26923078298568726
491.9100007874913,1.5
492.90491981913328,-0.11538461595773697
493.89964519157547,3.230769157409668
494.89417694339863,0.57692307233810425
495.88851511317262,-1
496.88265973944726,1.3461538553237915
497.87661086077605,0.57692307233810425
498.87036851569792,1.307692289352417
499.86393274274451,1.384615421295166
500.8573035804402,1.5
501.85048106729482,0.96153843402862549
502.84346524181092,1.807692289352417
503.83625614248922,0.96153843402862549
504.82885380781045,1.807692289352417
505.82125827625532,2.307692289352417
506.81346958628819,2.538461446762085
507.80548777637341,1.076923131942749
508.79731288496077,3.884615421295166
509.78894495048735,0.73076921701431274
510.7803840113902,3.5
511.77163010608638,3.769230842590332
512.7626832729984,0.15384615957736969
513.753543550527,2.230769157409668
514.74421097707091,1.1538461446762085
515.73468559101457,4
516.72496743074043,1.807692289352417
517.71505653461827,0.96153843402862549
518.7049529410051,1.2692307233810425
519.69465668825978,0.76923078298568726
520.68416781471751,1.7692307233810425
521.67348635871713,2.076923131942749
522.6626123585811,-0.5
523.6515458526319,-1.1538461446762085
524.64028687916834,0.46153846383094788
525.62883547649471,3.5
526.61719168289892,0.73076921701431274
527.60535553665977,-0.076923079788684845
528.59332707605427,2.5
529.58110633933939,1.9615384340286255
530.5686933647703,-0.11538461595773697
531.55608819059671,0.692307710647583
532.543290855052,0.88461536169052124
533.53030139635848,1.4615384340286255
534.517119852746,1.7692307233810425
535.50374626241319,2.769230842590332
536.49018066356621,1.0384615659713745
537.47642309439289,-0.076923079788684845
538.46247359308109,-0.23076923191547394
539.44833219780412,2.730769157409668
540.43399894672075,0.92307692766189575
541.419473877997,0.42307692766189575
542.40475702977346,1.692307710647583
543.38984844019069,2.423076868057251
544.37474814737834,2.730769157409668
545.35945618945516,1
546.3439726045417,0.076923079788684845
547.32829743073307,2.115384578704834
548.31243070612072,0.92307692766189575
549.29637246879975,2.538461446762085
550.28012275683977,-0.6538461446762085
551.26368160831407,-2.153846263885498
552.24704906127408,0.42307692766189575
553.23022515377488,-0.61538463830947876
554.21320992386063,0.19230769574642181
555.19600340955367,0.73076921701431274
556.1786056488927,1.7307692766189575
557.16101667987823,2.807692289352417
558.14323654052532,1
559.12526526882721,0.96153843402862549
560.10710290277348,1.8461538553237915
561.088749480341,0.692307710647583
562.07020503950662,1.0384615659713745
563.0514696182272,1.115384578704834
564.03254325445778,-0.61538463830947876
565.01342598614065,-0.19230769574642181
565.99411785121265,3.346153736114502
566.97461888760517,2.153846263885498
567.9549291332296,2.615384578704834
568.93504862599912,1.384615421295166
569.91497740381055,1.9615384340286255
570.89471550455892,-0.807692289352417
571.8742629661283,2.576923131942749
572.85361982638642,1.807692289352417
573.83278612320282,-0.3461538553237915
574.81176189443613,1.5
575.79054717792678,-0.42307692766189575
576.76914201152067,2.038461446762085
577.747546433051,1.3461538553237915
578.72576048033079,2.461538553237915
579.70378419117333,0.53846156597137451
580.6816176033899,1.1538461446762085
581.65926075476636,1.2692307233810425
582.63671368309952,2.423076868057251
583.613976426157,1.4615384340286255
584.59104902171384,2.076923131942749
585.56793150752856,1.7692307233810425
586.54462392135247,1.7307692766189575
587.52112630092961,-0.30769231915473938
588.49743868399491,1.5384615659713745
589.473561108267,1.2692307233810425
590.44949361146973,0.38461539149284363
591.42523623130546,1.192307710647583
592.40078900547815,2.692307710647583
593.37615197168088,0.11538461595773697
594.35132516758313,0.26923078298568726
595.32630863086888,2.769230842590332
596.30110239920032,1.807692289352417
597.27570651022688,-0.3461538553237915
598.25012100160166,-0.038461539894342422
599.22434591095953,0.61538463830947876
600.19838127593539,1.3461538553237915
601.17222713414048,4.269230842590332
602.145883523197,2.653846263885498
603.11935048069972,4.3076925277709961
604.09262804424907,0.5
605.06571625142715,2.653846263885498
606.03861513981246,2.884615421295166
607.01132474697624,5.4615383148193359
607.98384511047152,1.115384578704834
608.95617626785679,3.538461446762085
609.92831825667054,1.0384615659713745
610.90027111445124,0.73076921701431274
611.87203487871375,-0.53846156597137451
612.84360958698562,1.3461538553237915
613.81499527677443,3.730769157409668
614.78619198556953,1.807692289352417
615.75719975086758,-0.46153846383094788
616.7280186101525,1.2692307233810425
617.69864860089183,1.7692307233810425
618.66908976055493,0.076923079788684845
619.63934212659842,0.73076921701431274
620.60940573646621,0.53846156597137451
621.57928062759311,1.192307710647583
622.54896683741936,0.5
623.51846440335976,0.88461536169052124
624.48777336282728,2.307692289352417
625.45689375322763,2.769230842590332
626.42582561195377,3.615384578704834
627.394568976395,3.769230842590332
628.363123883928,1.7692307233810425
629.331490371922,3.5
630.299668477739,2.384615421295166
631.26765823873393,1.7692307233810425
632.23545969224324,0.5
633.20307287561081,-0.30769231915473938
634.170497826155,1.192307710647583
635.137734581198,-0.038461539894342422
636.10478317805246,1.615384578704834
637.0716436540115,2.230769157409668
638.03831604637162,0.96153843402862549
639.004800392413,2
639.97109672941588,2.230769157409668
640.9372050946422,2.961538553237915
641.90312552535215,0.53846156597137451
642.86885805879137,2.115384578704834
643.83440273220367,1.6538461446762085
644.79975958282012,-0.692307710647583
645.76492864786451,0.53846156597137451
646.72990996454973,3.769230842590332
647.69470357008322,1.423076868057251
648.6593095016633,0.692307710647583
649.6237277964774,1.5384615659713745
650.58795849170929,1.5384615659713745
651.5520016245282,-0.46153846383094788
652.51585723209973,2.115384578704834
653.4795253515731,1.576923131942749
654.44300602009935,1.576923131942749
655.406299274815,1.307692289352417
656.3694051528546,0.42307692766189575
657.33232369132747,1.384615421295166
658.29505492735188,1.692307710647583
659.25759889803339,1
660.21995564046847,2.230769157409668
661.182125191739,0.30769231915473938
662.14410758892154,1.5384615659713745
663.10590286909064,1.615384578704834
664.067511069301,0.807692289352417
665.02893222660714,1.5384615659713745
665.99016637806017,-0.30769231915473938
666.95121356068557,2.961538553237915
667.91207381151617,1.923076868057251
668.87274716756838,0.15384615957736969
669.83323366584955,2.076923131942749
670.7935333433652,2.115384578704834
671.75364623710266,0.8461538553237915
672.71357238405108,2.115384578704834
673.673311821185,0.23076923191547394
674.63286458547191,3.230769157409668
675.59223071386987,3.153846263885498
676.55141024332806,1.9615384340286255
677.51040321079017,-0.38461539149284363
678.46920965318714,0.692307710647583
679.42782960744807,0.15384615957736969
680.38626311048392,1.3461538553237915
681.34451019920562,-0.46153846383094788
682.30257091051317,1.615384578704834
683.26044528129387,2.384615421295166
684.21813334843318,0.88461536169052124
685.17563514880567,2.269230842590332
686.13295071927132,1.2692307233810425
687.0900800966956,1.1538461446762085
688.04702331792032,1.2307692766189575
689.00378041978729,-0.73076921701431274
689.96035143912923,2.5
