-773.51195264083617,9.5600004196167
-772.26970635356884,7.71999979019165
-771.02770412717837,9.84000015258789
-769.785945910744,11.239999771118164
-768.5444316533667,10.399999618530273
-767.30316130416213,10.760000228881836
-766.06213481226041,12.760000228881836
-764.821352126799,11.680000305175781
-763.58081319693338,13.920000076293945
-762.34051797182656,14.079999923706055
-761.10046640066685,14.880000114440918
-759.86065843263532,12.119999885559082
-758.62109401694215,15.279999732971191
-757.38177310281208,13.840000152587891
-756.14269563946254,14.319999694824219
-754.90386157614739,13.159999847412109
-753.66527086213136,14.960000038146973
-752.42692344666466,12.800000190734863
-751.188819279052,14.520000457763672
-749.95095830857281,15.680000305175781
-748.71334048454628,13.720000267028809
-747.47596575629541,14.920000076293945
-746.23883407314679,18.159999847412109
-745.00194538445612,15.239999771118164
-743.76529963958274,19.239999771118164
-742.52889678790052,16.200000762939453
-741.29273677879792,15.119999885559082
-740.05681956167064,14.920000076293945
-738.82114508593622,15.520000457763672
-737.5857133010195,17.760000228881836
-736.35052415635982,16.520000457763672
-735.11557760140022,16.440000534057617
-733.88087358561643,14.520000457763672
-732.64641205848784,16.920000076293945
-731.41219296949384,16.200000762939453
-730.17821626814293,17.600000381469727
-728.94448190395451,18.360000610351563
-727.71098982645526,15.5600004196167
-726.47773998518278,17.8799991607666
-725.24473232970013,15.239999771118164
-724.01196680956673,16.040000915527344
-722.77944337437111,16.159999847412109
-721.5471619737018,16.600000381469727
-720.31512255716552,16.399999618530273
-719.08332507438354,17.239999771118164
-717.85176947499167,15.4399995803833
-716.62045570861846,16.479999542236328
-715.3893837249434,18.360000610351563
-714.15855347362412,18.8799991607666
-712.92796490434375,16.159999847412109
-711.69761796680723,18.479999542236328
-710.46751261071586,16.079999923706055
-709.23764878579277,18.600000381469727
-708.00802644177929,17.319999694824219
-706.77864552840947,16.200000762939453
-705.549505995461,18
-704.32060779268977,16.840000152587891
-703.09195086989894,16.440000534057617
-701.86353517687348,17.520000457763672
-700.63536066343477,18.639999389648438
-699.40742727940051,20
-698.17973497461026,15.359999656677246
-696.95228369891447,16.680000305175781
-695.72507340217453,18.280000686645508
-694.49810403426636,17.319999694824219
-693.27137554508408,18.639999389648438
-692.04488788451818,16.319999694824219
-690.81864100249186,16.680000305175781
-689.59263484892472,17.799999237060547
-688.3668693737618,17.760000228881836
-687.1413445269518,17.520000457763672
-685.91606025846522,18.559999465942383
-684.69101651826531,18.959999084472656
-683.466213256359,16.319999694824219
-682.24165042274217,16.639999389648438
-681.01732796742908,17.680000305175781
-679.79324584045207,18.680000305175781
-678.5694039918435,19.239999771118164
-677.34580237166847,19.520000457763672
-676.12244092999572,19.280000686645508
-674.89931961689035,20.239999771118164
-673.67643838245749,16.639999389648438
-672.45379717679134,19.959999084472656
-671.23139595001885,19.200000762939453
-670.00923465226333,20.680000305175781
-668.78731323367356,16.520000457763672
-667.56563164439831,19.280000686645508
-666.34418983461183,18.639999389648438
-665.122987754492,20.680000305175781
-663.90202535423487,20.600000381469727
-662.68130258404017,19.600000381469727
-661.46081939413307,18.159999847412109
-660.240575734746,18.040000915527344
-659.0205715561151,16.600000381469727
-657.80080680850187,18.280000686645508
-656.58128144217881,19.040000915527344
-655.361995407422,20.079999923706055
-654.14294865453667,18.8799991607666
-652.9241411338171,18.319999694824219
-651.7055727955867,16.600000381469727
-650.48724359018706,17.680000305175781
-649.26915346794885,22.280000686645508
-648.05130237924277,19
-646.83369027443223,16.760000228881836
-645.61631710390611,20.079999923706055
-644.399182818046,19.319999694824219
-643.18228736727724,19.840000152587891
-641.96563070201046,20.680000305175781
-640.74921277268186,20.159999847412109
-639.53303352973853,19.760000228881836
-638.31709292363485,19.360000610351563
-637.101390904847,21.239999771118164
-635.88592742385481,18.920000076293945
-634.67070243115631,18.1200008392334
-633.45571587726045,21.239999771118164
-632.240967712687,20.719999313354492
-631.02645788797054,22.239999771118164
-629.81218635365985,21.360000610351563
-628.59815306031123,19.920000076293945
-627.38435795849182,19.399999618530273
-626.17080099879786,19.799999237060547
-624.95748213181469,21.200000762939453
-623.7444013081531,18.479999542236328
-622.53155847843846,21.719999313354492
-621.31895359330338,20.440000534057617
-620.10658660339141,16.440000534057617
-618.89445745937155,22
-617.68256611190191,21.440000534057617
-616.47091251167694,19.760000228881836
-615.2594966093875,19.239999771118164
-614.04831835574623,19
-612.83737770146945,22.280000686645508
-611.62667459729528,22.559999465942383
-610.41620899397276,21
-609.20598084225821,21.8799991607666
-607.99599009291524,20.239999771118164
-606.7862366967438,20.040000915527344
-605.57672060452933,18.600000381469727
-604.36744176707907,18.8799991607666
-603.15840013522575,19.360000610351563
-601.9495956597948,20.799999237060547
-600.74102829162985,16.559999465942383
-599.53269798159636,21.920000076293945
-598.32460468055979,21.799999237060547
-597.11674833940742,21.639999389648438
-595.90912890903019,20.600000381469727
-594.70174634034447,20.639999389648438
-593.49460058426666,21.1200008392334
-592.28769159173135,21.040000915527344
-591.08101931368037,20.040000915527344
-589.87458370107379,23.1200008392334
-588.66838470488256,22.399999618530273
-587.46242227609218,18.760000228881836
-586.25669636569182,20.8799991607666
-585.05120692469245,21.159999847412109
-583.8459539041196,20.239999771118164
-582.64093725499515,22.399999618530273
-581.43615692836647,21.440000534057617
-580.23161287529365,19.600000381469727
-579.02730504684951,21.639999389648438
-577.82323339410868,21.1200008392334
-576.61939786817129,18.360000610351563
-575.41579842013743,19.920000076293945
-574.21243500113269,20.360000610351563
-573.00930756228081,21.799999237060547
-571.80641605473465,22.920000076293945
-570.60376042964162,19.399999618530273
-569.40134063817277,20.840000152587891
-568.19915663151369,20.8799991607666
-566.9972083608518,22.079999923706055
-565.79549577739454,22.559999465942383
-564.594018832353,21.600000381469727
-563.39277747696906,22.280000686645508
-562.19177166247209,21.159999847412109
-560.99100134013133,20.760000228881836
-559.7904664612015,19.8799991607666
-558.59016697696461,20.239999771118164
-557.39010283871175,22.799999237060547
-556.19027399775041,24.440000534057617
-554.99068040538987,19.840000152587891
-553.79132201296306,22.760000228881836
-552.59219877181022,19.760000228881836
-551.39331063328973,23.600000381469727
-550.19465754875273,22.280000686645508
-548.99623946958855,21.200000762939453
-547.79805634717923,21.360000610351563
-546.60010813293411,22
-545.40239477826071,21.159999847412109
-544.20491623458474,21.280000686645508
-543.0076724533501,21.760000228881836
-541.81066338600431,20.959999084472656
-540.6138889840131,22.680000305175781
-539.41734919884766,21.680000305175781
-538.22104398199917,22.440000534057617
-537.02497328496611,21.760000228881836
-535.82913705926148,22.559999465942383
-534.63353525640559,22.8799991607666
-533.43816782793328,20.680000305175781
-532.243034725403,21.239999771118164
-531.04813590036792,20.520000457763672
-529.85347130440277,23.920000076293945
-528.65904088909519,22.559999465942383
-527.46484460603642,20.319999694824219
-526.27088240683952,22.760000228881836
-525.07715424312846,22.280000686645508
-523.88366006653268,19.239999771118164
-522.69039982870345,22.319999694824219
-521.49737348129383,20.440000534057617
-520.30458097597693,21.520000457763672
-519.11202226443311,21.799999237060547
-517.9196972983591,20.319999694824219
-516.72760602945891,23.239999771118164
-515.53574840945657,20.840000152587891
-514.34412439008338,23.520000457763672
-513.15273392307427,22.239999771118164
-511.96157696019327,22.559999465942383
-510.77065345320443,22.239999771118164
-509.57996335388816,23.440000534057617
-508.38950661403396,24.079999923706055
-507.19928318545135,23.079999923706055
-506.009293019948,18.200000762939453
-504.81953606935895,22.200000762939453
-503.63001228552639,23.520000457763672
-502.44072162029261,22.639999389648438
-501.25166402552895,22.319999694824219
-500.06283945311225,22.520000457763672
-498.87424785493022,26.559999465942383
-497.68588918288151,22.799999237060547
-496.4977633888866,23.239999771118164
-495.30987042485503,22.280000686645508
-494.12221024273822,25.319999694824219
-492.93478279447845,23.159999847412109
-491.74758803203986,22.559999465942383
-490.5606259073993,21.920000076293945
-489.37389637252818,23.200000762939453
-488.1873993794361,21.319999694824219
-487.00113488013267,26.040000915527344
-485.8151028266293,22.319999694824219
-484.62930317096834,25.440000534057617
-483.44373586519578,21.799999237060547
-482.25840086136122,25.280000686645508
-481.07329811153795,21.8799991607666
-479.88842756781014,22.440000534057617
-478.70378918227289,21.280000686645508
-477.51938290702128,23.239999771118164
-476.33520869418317,21.520000457763672
-475.15126649588274,24.079999923706055
-473.96755626426784,24.520000457763672
-472.78407795148814,22.959999084472656
-471.60083150970968,25.8799991607666
-470.41781689110212,23.399999618530273
-469.23503404786607,25.799999237060547
-468.05248293220211,23.319999694824219
-466.87016349631995,20.600000381469727
-465.68807569244927,23.360000610351563
-464.50621947281616,23.760000228881836
-463.32459478968667,24.8799991607666
-462.14320159531053,23.840000152587891
-460.96203984196472,23.360000610351563
-459.78110948193535,24.200000762939453
-458.6004104675194,21.680000305175781
-457.419942751023,24.760000228881836
-456.239706284774,21.440000534057617
-455.05970102109859,23.799999237060547
-453.87992691234467,24.760000228881836
-452.70038391086928,24.680000305175781
-451.52107196904217,21.719999313354492
-450.3419910392422,22.719999313354492
-449.16314107386461,23.200000762939453
-447.98452202531189,23.079999923706055
-446.80613384600474,22.680000305175781
-445.62797648836386,25.639999389648438
-444.45004990483903,24
-443.27235404787461,23.440000534057617
-442.09488886994041,25.280000686645508
-440.91765432350803,25.8799991607666
-439.74065036106913,22.799999237060547
-438.56387693512079,24.399999618530273
-437.38733399817647,26.8799991607666
-436.21102150276056,27.239999771118164
-435.03493940140834,21.840000152587891
-433.859087646666,25.639999389648438
-432.6834661910907,23.399999618530273
-431.50807498725953,21.680000305175781
-430.33291398774963,25.319999694824219
-429.15798314515814,25.479999542236328
-427.98328241209492,25.159999847412109
-426.80881174117167,22.840000152587891
-425.63457108502189,24.440000534057617
-424.46056039629184,25.760000228881836
-423.28677962762958,23.920000076293945
-422.113228731705,26.600000381469727
-420.93990766119532,22.840000152587891
-419.76681636878857,23.079999923706055
-418.59395480718376,23.959999084472656
-417.4213229290981,24.520000457763672
-416.24892068725239,23.760000228881836
-415.07674803439113,25.200000762939453
-413.90480492325514,23.600000381469727
-412.73309130660527,25.559999465942383
-411.56160713721874,24
-410.39035236788004,23.319999694824219
-409.21932695137548,26.639999389648438
-408.04853084052229,22.8799991607666
-406.87796398813043,26.8799991607666
-405.70762634704261,24.319999694824219
-404.53751787009242,23.200000762939453
-403.36763851014075,26.399999618530273
-402.19798822004668,24.520000457763672
-401.02856695269838,23.680000305175781
-399.85937466097494,26.159999847412109
-398.69041129778452,25.280000686645508
-397.52167681603896,25.040000915527344
-396.353171168661,22
-395.18489430858972,21.159999847412109
-394.01684618877334,24.159999847412109
-392.84902676217644,22.159999847412109
-391.68143598176539,23.959999084472656
-390.51407380052297,25.559999465942383
-389.3469401714483,22.360000610351563
-388.18003504754779,27.639999389648438
-387.01335838184059,25.8799991607666
-385.84691012736039,21.920000076293945
-384.6806902371427,22.680000305175781
-383.51469866424304,25.440000534057617
-382.34893536172967,26.920000076293945
-381.18340028268176,25.319999694824219
-380.01809338018211,24.479999542236328
-378.85301460734081,25.959999084472656
-377.68816391725704,24.799999237060547
-376.52354126307,23.200000762939453
-375.35914659789887,26.079999923706055
-374.19497987490831,25.680000305175781
-373.03104104724662,24.959999084472656
-371.86733006808936,27.360000610351563
-370.70384689061211,26.600000381469727
-369.54059146801774,23.799999237060547
-368.37756375350727,27.040000915527344
-367.21476370029814,21.319999694824219
-366.05219126162228,29.520000457763672
-364.8898463907135,25.840000152587891
-363.72772904083467,26
-362.56583916524323,24.159999847412109
-361.40417671721116,28
-360.24274165003226,25.239999771118164
-359.081533917004,26.200000762939453
-357.92055347143287,26.840000152587891
-356.75980026664365,25.399999618530273
-355.599274255972,29.360000610351563
-354.43897539276259,24.719999313354492
-353.27890363036749,27.159999847412109
-352.11905892216055,23.840000152587891
-350.95944122151559,26.840000152587891
-349.80005048183375,24.719999313354492
-348.64088665651252,25.8799991607666
-347.48194969896213,28.239999771118164
-346.32323956261644,28.639999389648438
-345.1647562009075,26.520000457763672
-344.00649956729103,25.840000152587891
-342.84846961522635,23.239999771118164
-341.69066629818008,28.959999084472656
-340.53308956964429,28.520000457763672
-339.37573938310743,26.200000762939453
-338.2186156920834,27.959999084472656
-337.06171845008612,29.680000305175781
-335.90504761065313,27.559999465942383
-334.74860312731835,25.799999237060547
-333.59238495363388,24.799999237060547
-332.43639304317185,27.959999084472656
-331.28062734950618,27.280000686645508
-330.12508782622172,25.600000381469727
-328.96977442692332,26.8799991607666
-327.81468710521767,29.600000381469727
-326.65982581472417,27.840000152587891
-325.50519050908952,26.479999542236328
-324.35078114194584,28.399999618530273
-323.19659766695622,28.719999313354492
-322.042640037791,28.360000610351563
-320.88890820812412,30.399999618530273
-319.73540213164961,28.8799991607666
-318.58212176207417,32.840000152587891
-317.42906705310816,31.840000152587891
-316.2762379584783,36.560001373291016
-315.12363443192226,31.959999084472656
-313.9712564271922,30.040000915527344
-312.81910389803852,30.239999771118164
-311.66717679824615,29.520000457763672
-310.51547508159092,29.1200008392334
-309.36399870186324,30.040000915527344
-308.21274761287896,27.079999923706055
-307.0617217684503,28.639999389648438
-305.91092112241131,29.239999771118164
-304.7603456285924,29.799999237060547
-303.60999524085491,29.799999237060547
-302.45986991305472,29.399999618530273
-301.30996959907316,28.079999923706055
-300.16029425279521,29.799999237060547
-299.01084382811496,30.040000915527344
-297.86161827894466,31.1200008392334
-296.71261755920386,30.079999923706055
-295.563841622823,29.600000381469727
-294.41529042374714,31.040000915527344
-293.26696391593214,30.799999237060547
-292.11886205333758,31.959999084472656
-290.97098478994849,35.680000305175781
-289.82333207974989,32.959999084472656
-288.67590387674136,33.840000152587891
-287.52870013493884,33.2400016784668
-286.38172080835648,32.599998474121094
-285.23496585103931,33.639999389648438
-284.08843521702511,32.439998626708984
-282.94212886037531,30.719999313354492
-281.79604673515678,31.559999465942383
-280.65018879545278,35
-279.50455499534473,33.919998168945313
-278.359145288945,31.239999771118164
-277.21395963036048,32.520000457763672
-276.06899797372535,31
-274.92426027316469,30.799999237060547
-273.77974648283453,33.639999389648438
-272.63545655689268,32.080001831054688
-271.49139044950425,31.799999237060547
-270.34754811485618,34.959999084472656
-269.20392950714449,34.279998779296875
-268.06053458056886,30.159999847412109
-266.91736328934348,36.159999847412109
-265.77441558769715,31.719999313354492
-264.631691429875,35.599998474121094
-263.48919077011669,34.479999542236328
-262.34691356268377,36.599998474121094
-261.20485976185773,33.279998779296875
-260.06302932191284,34.919998168945313
-258.92142219715242,36.919998168945313
-257.78003834187439,34.680000305175781
-256.63887771039481,34.040000915527344
-255.49794025705341,33.919998168945313
-254.35722593618084,35.119998931884766
-253.216734702135,35.159999847412109
-252.076466509272,32.880001068115234
-250.93642131196611,37.279998779296875
-249.7965990646062,33.720001220703125
-248.65699972158654,36.159999847412109
-247.51762323731782,37
-246.37846956621252,38.400001525878906
-245.23953866270131,32.439998626708984
-244.1008304812367,34.959999084472656
-242.96234497625483,35.479999542236328
-241.8240821022282,38.040000915527344
-240.68604181363298,36.840000152587891
-239.54822406495077,39.040000915527344
-238.41062881068319,39.479999542236328
-237.27325600533186,37.919998168945313
-236.13610560342386,42
-234.99917755948991,37
-233.862471828068,40.200000762939453
-232.72598836371435,41.720001220703125
-231.58972712099603,41.799999237060547
-230.45368805447833,40.599998474121094
-229.3178711187611,42.720001220703125
-228.18227626843509,43.840000152587891
-227.04690345811105,42.639999389648438
-225.91175264241065,43.119998931884766
-224.77682377596102,44.720001220703125
-223.64211681341294,42.639999389648438
-222.507631709419,44.720001220703125
-221.37336841863544,45.639999389648438
-220.2393268957494,44.360000610351563
-219.10550709544077,44.319999694824219
-217.97190897241308,43.400001525878906
-216.83853248137348,43.840000152587891
-215.70537757704551,43.959999084472656
-214.57244421415817,42.959999084472656
-213.43973234745863,43.159999847412109
-212.3072419316959,43.599998474121094
-211.1749729216408,40.040000915527344
-210.042925272066,41.040000915527344
-208.91109893776047,39.080001831054688
-207.77949387352419,39.159999847412109
-206.64811003416798,43.639999389648438
-205.5169473745118,45.680000305175781
-204.38600584938649,42.479999542236328
-203.25528541363383,42.799999237060547
-202.12478602211559,41.119998931884766
-200.99450762968627,44.959999084472656
-199.86445019123312,45.319999694824219
-198.73461366164156,43.959999084472656
-197.60499799580612,47
-196.47560314863586,47.599998474121094
-195.34642907505804,45.2400016784668
-194.21747572999993,45.840000152587891
-193.0887430684088,48.880001068115234
-191.96023104523192,49.400001525878906
-190.83193961544202,48.279998779296875
-189.70386873401003,50.639999389648438
-188.57601835592868,51.680000305175781
-187.44838843618891,52.2400016784668
-186.32097892980892,53.200000762939453
-185.19378979179783,53.840000152587891
-184.06682097719931,55.720001220703125
-182.94007244104978,55.400001525878906
-181.81354413840563,53.599998474121094
-180.68723602432692,53.319999694824219
-179.56114805389007,58.360000610351563
-178.43528018218967,57
-177.30963236431307,56.840000152587891
-176.18420455537307,57.159999847412109
-175.05899671049156,57.319999694824219
-173.93400878479952,59.560001373291016
-172.8092407334334,57.599998474121094
-171.68469251155148,60.840000152587891
-170.56036407431748,62.2400016784668
-169.43625537690059,65.680000305175781
-168.31236637449183,69.5999984741211
-167.18869702228221,70.040000915527344
-166.06524727548822,72.080001831054688
-164.94201708932451,74.680000305175781
-163.81900641901848,78.44000244140625
-162.69621521981026,77.680000305175781
-161.57364344695634,82.44000244140625
-160.45129105571505,86.160003662109375
-159.32915800136652,84.680000305175781
-158.20724423918546,88.760002136230469
-157.08554972447382,93.639999389648438
-155.96407441253541,94.800003051757813
-154.84281825868857,97.279998779296875
-153.72178121826437,95.760002136230469
-152.60096324659753,103.59999847412109
-151.48036429904278,107.04000091552734
-150.35998433095847,106.72000122070313
-149.23982329771206,116.23999786376953
-148.11988115469831,118.55999755859375
-147.0001578572992,118.19999694824219
-145.88065336092768,126.80000305175781
-144.76136762099122,126.19999694824219
-143.64230059293004,130.96000671386719
-142.5234522321698,133.67999267578125
-141.40482249415982,134.8800048828125
-140.28641133436759,135.39999389648438
-139.16821870825697,138.1199951171875
-138.05024457131003,138.03999328613281
-136.93248887901791,136.83999633789063
-135.81495158688631,134.27999877929688
-134.69763265042639,128.96000671386719
-133.58053202516567,129
-132.46364966663896,125.12000274658203
-131.34698553039198,116.72000122070313
-130.23053957198317,115.68000030517578
-129.11431174697645,109.91999816894531
-127.99830201095756,109.80000305175781
-126.8825103195104,102.76000213623047
-125.76693662824073,105.31999969482422
-124.65158089275792,103.27999877929688
-123.53644306868227,99.5999984741211
-122.42152311165228,97.199996948242188
-121.30682097731187,100.95999908447266
-120.19233662130864,100.19999694824219
-119.07806999931199,101.83999633789063
-117.96402106700589,103.08000183105469
-116.85018978006883,105.91999816894531
-115.73657609419934,107.95999908447266
-114.62317996511774,106.80000305175781
-113.51000134852802,113.12000274658203
-112.39704020017234,117.40000152587891
-111.28429647578741,121.23999786376953
-110.17177013112814,128.55999755859375
-109.05946112195488,132.96000671386719
-107.94736940404619,138.72000122070313
-106.83549493318606,146.36000061035156
-105.72383766516577,150.75999450683594
-104.612397555793,155.96000671386719
-103.50117456088628,171.08000183105469
-102.39016863627148,189.67999267578125
-101.27937973778899,210.52000427246094
-100.16880782129374,214.36000061035156
-99.058452842637053,192.36000061035156
-97.9483147576957,165.80000305175781
-96.838393522348269,154.08000183105469
-95.728689092489731,145.80000305175781
-94.6192014240205,138.96000671386719
-93.509930472861015,138.67999267578125
-92.400876194924422,140.52000427246094
-91.2920385461548,145.27999877929688
-90.183417482501682,154.52000427246094
-89.075012959910964,154.75999450683594
-87.9668249343631,161.44000244140625
-86.85885336182946,168.27999877929688
-85.751098198299587,171.72000122070313
-84.643559399773949,178.80000305175781
-83.536236922265743,183
-82.429130721789988,190.8800048828125
-81.322240754388986,199.27999877929688
-80.215566976095943,208
-79.109109342967713,226.55999755859375
-78.002867811070246,241.52000427246094
-76.896842336478585,261.27999877929688
-75.791032875273231,288.55999755859375
-74.685439383558332,306.32000732421875
-73.580061817436217,295.8800048828125
-72.474900133025585,285.55999755859375
-71.3699542864506,272.72000122070313
-70.265224233859044,254.67999267578125
-69.160709931396923,243.80000305175781
-68.05641133521749,239.83999633789063
-66.952328401503109,243.83999633789063
-65.848461086430689,250.8800048828125
-64.7448093461935,280.60000610351563
-63.641373136992115,337.83999633789063
-62.538152415045261,442.04000854492188
-61.435147136569867,625.8800048828125
-60.332357257806507,935.15997314453125
-59.229782735001208,1186.199951171875
-58.127423524405458,1149.4000244140625
-57.025279582292569,954.3599853515625
-55.923350864935855,774.280029296875
-54.821637328623183,618.03997802734375
-53.720138929656969,508.1199951171875
-52.618855624345088,445.39999389648438
-51.517787369006328,420.72000122070313
-50.41693411997403,435.6400146484375
-49.316295833586992,502.20001220703125
-48.215872466198562,584.44000244140625
-47.115663974169365,691.15997314453125
-46.015670313878218,830.5999755859375
-44.915891441702115,1097.6400146484375
-43.816327314034424,1354.760009765625
-42.716977887288522,1484.239990234375
-41.617843117875964,1652.6400146484375
-40.518922962221041,2020.1199951171875
-39.420217376760775,2003
-38.3217263179431,1711.8800048828125
-37.223449742226876,1780.47998046875
-36.125387606081858,1844.239990234375
-35.027539865983272,1547.5999755859375
-33.929906478420889,1409.5999755859375
-32.832487399897218,1357.5999755859375
-31.735282586923859,1085.719970703125
-30.638291996019689,830.32000732421875
-29.541515583716318,666.32000732421875
-28.44495330655991,546.239990234375
-27.348605121096625,464.3599853515625
-26.252470983896274,405.16000366210938
-25.156550851528664,358.67999267578125
-24.060844680578157,346
-22.965352427649123,337.1199951171875
-21.870074049333198,319.72000122070313
-20.775009502252942,316.27999877929688
-19.680158743038191,319.51998901367188
-18.585521728322419,330.60000610351563
-17.491098414751832,385.95999145507813
-16.396888758989007,632.4000244140625
-15.302892717698342,993.20001220703125
-14.209110247560602,599.91998291015625
-13.115541305269289,417.60000610351563
-12.022185847514265,385.48001098632813
-10.929043831019953,388.32000732421875
-9.8361152124980435,404.51998901367188
-8.7433999486820539,414.95999145507813
-7.65089799631096,428
-6.5586093121492013,421.27999877929688
-5.466533852946668,324.92001342773438
-4.3746715754823526,99.360000610351563
-3.2830224365425238,28.200000762939453
-2.1915863929170882,25.280000686645508
-1.1003634014141426,38.639999389648438
-0.0093534188454214018,62.720001220703125
1.0814435979573318,38.799999237060547
2.1720276921641926,16.520000457763672
3.2623989069197705,22.159999847412109
4.35255728537777,112.55999755859375
5.4425028706609737,355.67999267578125
6.5322357058976195,417.27999877929688
7.6217558341977565,416.48001098632813
8.7110632986587,407.95999145507813
9.8001581423777679,397.6400146484375
10.889040408424989,396.16000366210938
11.977710139883129,404.95999145507813
13.06616737980039,459.04000854492188
14.154412171230433,763.52001953125
15.242444557208728,1016.5599975585938
16.330264580770745,545.760009765625
17.417872284928308,379.32000732421875
18.50526771269142,337.67999267578125
19.592450907051898,333.44000244140625
20.679421910997917,334.92001342773438
21.766180767510377,352.32000732421875
22.852727519550172,368.51998901367188
23.939062210076372,380.16000366210938
25.025184882029862,400.16000366210938
26.111095578347886,454.20001220703125
27.196794341953137,537.8800048828125
28.28228121576285,642.760009765625
29.367556242677892,774.08001708984375
30.452619465586395,954.84002685546875
31.537470927380127,1271.43994140625
32.622110670923576,1551.199951171875
33.706538739086682,1567.719970703125
34.790755174713922,1796.8800048828125
35.874760020649774,2098.159912109375
36.95855331972416,1989.719970703125
38.04213511476155,1949.0799560546875
39.125505448568219,2308.639892578125
40.208664363943171,2244.080078125
41.291611903676312,1850.280029296875
42.37434811055391,1655.9599609375
43.45687302733495,1527.8800048828125
44.539186696785691,1230.800048828125
45.621289161648747,939.44000244140625
46.703180464664911,787.6400146484375
47.784860648560425,674.239990234375
48.866329756052437,565.44000244140625
49.947587829856275,510.48001098632813
51.028634912656344,488.95999145507813
52.109471047146144,528.280029296875
53.190096275999167,596.8800048828125
54.270510641885267,720
55.350714187454287,911.03997802734375
56.430706955356072,1119.8399658203125
57.5104889882241,1374.1199951171875
58.590060328684558,1464.8800048828125
59.669421019347283,1214.5999755859375
60.7485711028221,825.08001708984375
61.82751062170064,566.91998291015625
62.906239618561813,426.44000244140625
63.984758135989978,352.20001220703125
65.063066216536754,312.83999633789063
66.141163902764674,299
67.219051237207168,293.92001342773438
68.29672826240494,302.44000244140625
69.374195020876869,309.20001220703125
70.4514515551291,329.67999267578125
71.528497907673227,345.95999145507813
72.605334120997213,372.83999633789063
73.681960237579915,380.60000610351563
74.758376299892916,378.67999267578125
75.8345823503987,345.48001098632813
76.910578431545218,323.48001098632813
77.986364585774936,293.3599853515625
79.061940855521243,274.239990234375
80.137307283193877,262.6400146484375
81.212463911211671,250.03999328613281
82.28741078197163,240.16000366210938
83.362147937861664,231.60000610351563
84.436675421262407,232.72000122070313
85.51099327454358,221.8800048828125
86.58510154006035,217.80000305175781
87.659000260162429,205.03999328613281
88.7326894771868,207
89.80616923346679,194.67999267578125
90.879439571315743,193.1199951171875
91.952500533045168,185.27999877929688
93.025352160946568,183.60000610351563
94.097994497313266,186.19999694824219
95.170427584422214,191.60000610351563
96.242651464532173,209.16000366210938
97.314666179911,226.67999267578125
98.386471772804725,261.48001098632813
99.458068285441186,283
100.52945576005368,288.3599853515625
101.60063423885185,266.60000610351563
102.67160376405081,236.55999755859375
103.74236437784384,219.03999328613281
104.81291612240966,203.03999328613281
105.88325903993427,197.72000122070313
106.95339317257822,194.96000671386719
108.02331856250021,186.91999816894531
109.09303525183896,181.8800048828125
110.16254328273681,169.83999633789063
111.23184269731064,165.80000305175781
112.30093353768643,158.80000305175781
113.36981584596106,152.8800048828125
114.43848966423138,151.08000183105469
115.50695503458155,147.72000122070313
116.57521199908842,142.67999267578125
117.64326059981613,139.19999694824219
118.71110087881789,139.83999633789063
119.77873287813418,139
120.8461566398073,141.47999572753906
121.91337220585774,142.16000366210938
122.98037961829687,144.60000610351563
124.04717891912696,141.63999938964844
125.11377015035214,143.03999328613281
126.18015335394557,147.16000366210938
127.24632857188772,157
128.31229584614084,160.72000122070313
129.37805521865448,158.1199951171875
130.44360673138181,171.8800048828125
131.50895042624506,179.63999938964844
132.57408634517378,183.39999389648438
133.63901453007747,190.36000061035156
134.70373502286202,192.52000427246094
135.76824786542602,197.19999694824219
136.83255309964807,196.24000549316406
137.89665076739402,206
138.96054091054066,202.08000183105469
140.024223570932,202.24000549316406
141.08769879041392,194.72000122070313
142.1509666108177,199.96000671386719
143.214027073971,193.72000122070313
144.27688022168513,187.63999938964844
145.33952609575863,186.03999328613281
146.40196473799006,181.36000061035156
147.46419619015978,171.83999633789063
148.52622049404272,170.39999389648438
149.58803769140104,167.60000610351563
150.64964782398602,161.96000671386719
151.71105093354345,155
152.77224706180459,151.75999450683594
153.83323625049343,147.1199951171875
154.89401854132302,143.39999389648438
155.95459397599734,135.91999816894531
157.01496259620762,135.36000061035156
158.07512444363783,132.47999572753906
159.13507955996283,130.60000610351563
160.19482798684112,123
161.25436976592937,124.27999877929688
162.31370493887334,121.27999877929688
163.37283354730243,116.95999908447266
164.4317556328424,110.04000091552734
165.49047123710079,112.72000122070313
166.54898040169246,108.04000091552734
167.60728316820132,99.239997863769531
168.66537957821311,98.44000244140625
169.72326967330264,96.199996948242188
170.780953495032,93.199996948242188
171.83843108495967,92.360000610351563
172.89570248462041,89.4000015258789
173.95276773555634,87.4800033569336
175.00962687929132,80.800003051757813
176.06627995733652,83.4000015258789
177.12272701119764,83.160003662109375
178.178968082364,80.319999694824219
179.23500321232495,79.55999755859375
180.2908324425498,82.040000915527344
181.34645581451332,80.55999755859375
182.40187336966119,79.040000915527344
183.45708514943908,77.760002136230469
184.51209119528539,80.680000305175781
185.56689154862397,81.160003662109375
186.62148625086775,78.360000610351563
187.67587534342056,77.680000305175781
188.7300588676826,74.4000015258789
189.78403686503225,76.040000915527344
190.83780937685697,77.160003662109375
191.89137644451148,73.040000915527344
192.94473810935415,72.319999694824219
193.9978944127306,70.279998779296875
195.050845395981,67.959999084472656
196.10359110042373,67.55999755859375
197.15613156738254,65.160003662109375
198.20846683816126,65
199.26059695405638,64.160003662109375
200.31252195635352,64.879997253417969
201.36424188632918,62.880001068115234
202.4157567852526,61.200000762939453
203.4670666943839,61.319999694824219
204.51817165496323,63.840000152587891
205.56907170823069,61.919998168945313
206.61976689541734,61.520000457763672
207.670257257736,59.680000305175781
208.72054283640318,62.479999542236328
209.77062367260442,62.880001068115234
210.820499807538,64.720001220703125
211.8701712823804,63.080001831054688
212.91963813829716,63.720001220703125
213.96890041645383,62.400001525878906
215.01795815799051,63.159999847412109
216.06681140405453,66.279998779296875
217.11546019577327,62.040000915527344
218.16390457426678,70.239997863769531
219.2121445806406,65.839996337890625
220.26018025599478,68.4000015258789
221.30801164143122,66.160003662109375
222.35563877801724,68.279998779296875
223.40306170683289,64.4800033569336
224.45028046893094,64.959999084472656
225.49729510536963,69.319999694824219
226.54410565718536,66.44000244140625
227.59071216541633,66
228.6371146710826,62.799999237060547
229.68331321518963,67.680000305175781
230.72930783874654,65.120002746582031
231.77509858274425,62.639999389648438
232.82068548816642,58.279998779296875
233.86606859598396,62.319999694824219
234.91124794716416,60.040000915527344
235.95622358265609,61.439998626708984
237.00099554340886,58.799999237060547
238.04556387035336,57.439998626708984
239.08992860441322,55.599998474121094
240.13408978650659,57.319999694824219
241.1780474575371,58.319999694824219
242.22180165840109,59.040000915527344
243.26535242998034,54.639999389648438
244.30869981315118,57.360000610351563
245.35184384878812,55.680000305175781
246.39478457773839,54.479999542236328
247.43752204085104,52.720001220703125
248.48005627896237,55.880001068115234
249.52238733290687,52.279998779296875
250.56451524348995,50.680000305175781
251.60644005152972,54.560001373291016
252.64816179782065,54.919998168945313
253.68968052315358,56.639999389648438
254.730996268303,51.439998626708984
255.77210907403787,53.840000152587891
256.81301898112542,51.880001068115234
257.85372603030919,50.439998626708984
258.89423026233089,52.400001525878906
259.93453171791953,54.279998779296875
260.9746304377968,53.520000457763672
262.01452646267171,51
263.05421983325323,54.119998931884766
264.09371059022669,51.799999237060547
265.13299877427562,51.680000305175781
266.1720844260708,55.040000915527344
267.21096758627755,52.799999237060547
268.24964829555029,53.040000915527344
269.2881265945307,52.680000305175781
270.32640252385318,53.2400016784668
271.3644761241394,51.560001373291016
272.40234743601104,52.520000457763672
273.44001650006248,54.080001831054688
274.47748335689721,50.880001068115234
275.51474804710051,50.840000152587891
276.55181061124858,48.840000152587891
277.58867108990307,49.639999389648438
278.6253295236238,52.319999694824219
279.66178595296151,47.7599983215332
280.69804041844691,52.840000152587891
281.73409296061618,50.479999542236328
282.76994361998004,49.520000457763672
283.805592437051,55.319999694824219
284.84103945233073,54.560001373291016
285.87628470630625,59.599998474121094
286.91132823945736,57.560001373291016
287.94617009225294,57.360000610351563
288.98081030516005,55.919998168945313
290.01524891862209,51.720001220703125
291.04948597308794,49.040000915527344
292.08352150898645,51.799999237060547
293.11735556673921,46.439998626708984
294.1509881867587,49.840000152587891
295.18441940945377,46.040000915527344
296.21764927521144,46.919998168945313
297.25067782442056,47.520000457763672
298.2835050974536,44.319999694824219
299.31613113467938,43.200000762939453
300.34855597644855,47.720001220703125
301.38077966311357,44.959999084472656
302.41280223500326,44.959999084472656
303.44462373245005,44.2400016784668
304.47624419576641,45.880001068115234
305.50766366526477,47.799999237060547
306.53888218124666,45.439998626708984
307.56989978399361,48.720001220703125
308.60071651379076,50.200000762939453
309.63133241090145,47.680000305175781
310.66174751559265,48.479999542236328
311.69196186811314,46.560001373291016
312.72197550869896,53.840000152587891
313.7517884775898,57.680000305175781
314.78140081500351,59.080001831054688
315.81081256115249,61.840000152587891
316.84002375624368,58.7599983215332
317.86903444046584,50.599998474121094
318.89784465400771,50.439998626708984
319.92645443703987,47.720001220703125
320.95486382973104,46.959999084472656
321.98307287223361,44.720001220703125
323.01108160469812,45.2400016784668
324.03889006725694,44.639999389648438
325.06649830004426,43.959999084472656
326.09390634316696,43.439998626708984
327.12111423674287,43.360000610351563
328.14812202086614,41.720001220703125
329.1749297356273,42.479999542236328
330.20153742110597,39.919998168945313
331.22794511737266,40.799999237060547
332.25415286449424,41.360000610351563
333.28016070251033,42.919998168945313
334.30596867147324,42.400001525878906
335.33157681140983,39.840000152587891
336.356985162347,41.119998931884766
337.38219376429515,43.360000610351563
338.40720265726304,39.200000762939453
339.4320118812393,43.040000915527344
340.45662147621442,44.560001373291016
341.48103148216251,40.360000610351563
342.50524193905039,41.639999389648438
343.52925288683764,42.720001220703125
344.55306436546562,40.880001068115234
345.57667641487933,40.880001068115234
346.60008907500196,42.279998779296875
347.62330238575669,43.400001525878906
348.6463163870576,42.720001220703125
349.66913111879694,41.479999542236328
350.691746620867,42.119998931884766
351.71416293315815,41.200000762939453
352.73638009553179,40.439998626708984
353.75839814785832,41.7599983215332
354.78021712998816,42.080001831054688
355.80183708176628,43.319999694824219
356.82325804302855,41.040000915527344
357.84448005359627,41.919998168945313
358.86550315329259,42.159999847412109
359.88632738192064,41.560001373291016
360.90695277927625,43.080001831054688
361.9273793851462,39.599998474121094
362.94760723931722,43.680000305175781
363.9676363815488,42.200000762939453
364.98746685160586,42.720001220703125
366.00709868923332,41.439998626708984
367.02653193418337,43.119998931884766
368.0457666261791,42.319999694824219
369.06480280494725,42.2400016784668
370.08364051019453,41.799999237060547
371.10227978162948,44.159999847412109
372.12072065894608,41.7599983215332
373.13896318183288,42.119998931884766
374.15700738995474,43.520000457763672
375.17485332298929,43.159999847412109
376.1925010205905,42.080001831054688
377.20995052240505,43.799999237060547
378.22720186806691,40.279998779296875
379.24425509721186,39.919998168945313
380.26111024945749,45.279998779296875
381.27776736441228,41.319999694824219
382.29422648167929,45.799999237060547
383.31048764085062,42.720001220703125
384.3265508815075,42.400001525878906
385.34241624322385,43.119998931884766
386.35808376556452,41.7599983215332
387.37355348807978,43.680000305175781
388.38882545031993,39.040000915527344
389.40389969181524,40.119998931884766
390.41877625210145,43.479999542236328
391.433455170687,41.880001068115234
392.447936487084,41.439998626708984
393.46222024079,40.639999389648438
394.476306471297,43.400001525878906
395.49019521808259,41.7599983215332
396.50388652061883,41.7599983215332
397.51738041836506,39.840000152587891
398.530676950777,42
399.54377615729936,42.279998779296875
400.55667807736063,42.119998931884766
401.5693827503892,41.840000152587891
402.5818902157971,44
403.59420051299639,45.080001831054688
404.60631368137911,44.479999542236328
405.61822976033545,40.520000457763672
406.62994878923928,43.560001373291016
407.64147080746443,40.919998168945313
408.6527958543702,41.279998779296875
409.66392396930314,41.2400016784668
410.67485519161164,39.720001220703125
411.68558956062407,43.2400016784668
412.69612711565969,41.599998474121094
413.70646789603961,39.680000305175781
414.71661194106127,40.159999847412109
415.72655929002758,41.560001373291016
416.73630998222143,43.840000152587891
417.745864056913,42.799999237060547
418.75522155338149,42.959999084472656
419.76438251087711,42.680000305175781
420.77334696865182,39.7599983215332
421.78211496594486,43.919998168945313
422.79068654198818,42.200000762939453
423.79906173600284,42.720001220703125
424.80724058720261,44.959999084472656
425.81522313478672,44.799999237060547
426.82300941795256,40.040000915527344
427.83059947589027,43.2400016784668
428.8379933477645,42.880001068115234
429.84519107274537,43.799999237060547
430.85219268999572,42.799999237060547
431.85899823866021,46.080001831054688
432.86560775787439,43.880001068115234
433.87202128677382,44.200000762939453
434.8782388644795,46.119998931884766
435.88426053009243,45.279998779296875
436.89008632272635,45.319999694824219
437.89571628147496,44.119998931884766
438.9011504454138,45.080001831054688
439.90638885362387,45.200000762939453
440.91143154516431,42.799999237060547
441.91627855910519,44.880001068115234
442.92092993447841,42.400001525878906
443.92538571033219,40.439998626708984
444.92964592569297,43.200000762939453
445.93371061957805,41.400001525878906
446.93757983100477,41.720001220703125
447.94125359896861,42.799999237060547
448.94473196246508,41.639999389648438
449.94801496047694,42.520000457763672
450.95110263197967,40.840000152587891
451.953995015936,41.7599983215332
452.95669215130511,39.720001220703125
453.95919407703332,41.479999542236328
454.96150083205976,40.840000152587891
455.96361245530716,42
456.96552898570553,43.279998779296875
457.96725046215579,42.119998931884766
458.96877692356611,40.7599983215332
459.97010840882649,44.119998931884766
460.971244956816,39.2400016784668
461.972186606421,43.799999237060547
462.97293339649332,42.680000305175781
463.97348536589743,42.080001831054688
464.97384255347788,41.439998626708984
465.97400499807009,43.200000762939453
466.97397273850584,40
467.97374581360418,42.919998168945313
468.97332426217872,41.479999542236328
469.9727081230285,40.919998168945313
470.97189743494346,41.919998168945313
471.97089223671173,42.560001373291016
472.96969256710508,39.639999389648438
473.96829846489163,41.400001525878906
474.96670996882312,40.840000152587891
475.96492711765313,39.040000915527344
476.96294995011704,42.639999389648438
477.96077850494112,40.479999542236328
478.958412820848,43.439998626708984
479.95585293654949,40.880001068115234
480.95309889074997,45.919998168945313
481.95015072213755,41.520000457763672
482.94700846940214,42.799999237060547
483.94367217121362,44.479999542236328
484.94014186624008,40.279998779296875
485.93641759313687,42.040000915527344
486.93249939055568,43.799999237060547
487.92838729713003,42.799999237060547
488.92408135149708,42.560001373291016
489.91958159227397,42.639999389648438
490.91488805807057,41.7599983215332
491.9100007874913,42.520000457763672
492.90491981913328,44.360000610351563
493.89964519157547,44.400001525878906
494.89417694339863,41.840000152587891
495.88851511317262,40.439998626708984
496.88265973944726,44.279998779296875
497.87661086077605,40.560001373291016
498.87036851569792,43.439998626708984
499.86393274274451,42.479999542236328
500.8573035804402,43.200000762939453
501.85048106729482,43.400001525878906
502.84346524181092,41.360000610351563
503.83625614248922,44.720001220703125
504.82885380781045,42.2400016784668
505.82125827625532,43.840000152587891
506.81346958628819,43.279998779296875
507.80548777637341,41.080001831054688
508.79731288496077,42.7599983215332
509.78894495048735,43.040000915527344
510.7803840113902,43.520000457763672
511.77163010608638,41.520000457763672
512.7626832729984,42.360000610351563
513.753543550527,44.040000915527344
514.74421097707091,42.319999694824219
515.73468559101457,40.040000915527344
516.72496743074043,44.400001525878906
517.71505653461827,44
518.7049529410051,41.560001373291016
519.69465668825978,40.959999084472656
520.68416781471751,44.279998779296875
521.67348635871713,42.400001525878906
522.6626123585811,43.2400016784668
523.6515458526319,43.159999847412109
524.64028687916834,43.919998168945313
525.62883547649471,44.840000152587891
526.61719168289892,41.479999542236328
527.60535553665977,43.159999847412109
528.59332707605427,43.520000457763672
529.58110633933939,41.080001831054688
530.5686933647703,41.479999542236328
531.55608819059671,43.080001831054688
532.543290855052,43.360000610351563
533.53030139635848,42.479999542236328
534.517119852746,42.080001831054688
535.50374626241319,42.159999847412109
536.49018066356621,44.279998779296875
537.47642309439289,41.560001373291016
538.46247359308109,40.520000457763672
539.44833219780412,42.639999389648438
540.43399894672075,44.840000152587891
541.419473877997,41.680000305175781
542.40475702977346,44.479999542236328
543.38984844019069,42.639999389648438
544.37474814737834,43.599998474121094
545.35945618945516,42.799999237060547
546.3439726045417,43.159999847412109
547.32829743073307,44.360000610351563
548.31243070612072,42.680000305175781
549.29637246879975,43.919998168945313
550.28012275683977,43.040000915527344
551.26368160831407,42.200000762939453
552.24704906127408,40.7599983215332
553.23022515377488,41.279998779296875
554.21320992386063,40.840000152587891
555.19600340955367,44.799999237060547
556.1786056488927,42.959999084472656
557.16101667987823,43.720001220703125
558.14323654052532,44.599998474121094
559.12526526882721,43.159999847412109
560.10710290277348,43.919998168945313
561.088749480341,44.2400016784668
562.07020503950662,40.080001831054688
563.0514696182272,42.599998474121094
564.03254325445778,43.439998626708984
565.01342598614065,40.959999084472656
565.99411785121265,42.880001068115234
566.97461888760517,44.119998931884766
567.9549291332296,42.7599983215332
568.93504862599912,42.319999694824219
569.91497740381055,39.360000610351563
570.89471550455892,43.319999694824219
571.8742629661283,43.200000762939453
572.85361982638642,42.919998168945313
573.83278612320282,41.880001068115234
574.81176189443613,44.919998168945313
575.79054717792678,41.040000915527344
576.76914201152067,42.159999847412109
577.747546433051,40
578.72576048033079,46.200000762939453
579.70378419117333,41.7599983215332
580.6816176033899,44.400001525878906
581.65926075476636,42.439998626708984
582.63671368309952,42.560001373291016
583.613976426157,45.439998626708984
584.59104902171384,44.880001068115234
585.56793150752856,41.200000762939453
586.54462392135247,43.2400016784668
587.52112630092961,44.319999694824219
588.49743868399491,41.2400016784668
589.473561108267,41.080001831054688
590.44949361146973,44.400001525878906
591.42523623130546,43.360000610351563
592.40078900547815,45.279998779296875
593.37615197168088,43.279998779296875
594.35132516758313,45.279998779296875
595.32630863086888,43.319999694824219
596.30110239920032,43.119998931884766
597.27570651022688,41.840000152587891
598.25012100160166,45.360000610351563
599.22434591095953,42.560001373291016
600.19838127593539,44.159999847412109
601.17222713414048,45.639999389648438
602.145883523197,45.200000762939453
603.11935048069972,44
604.09262804424907,43.560001373291016
605.06571625142715,44.840000152587891
606.03861513981246,42.599998474121094
607.01132474697624,42.919998168945313
607.98384511047152,41.639999389648438
608.95617626785679,47.2400016784668
609.92831825667054,42.680000305175781
610.90027111445124,45.720001220703125
611.87203487871375,44.7599983215332
612.84360958698562,42
613.81499527677443,44.2400016784668
614.78619198556953,44.680000305175781
615.75719975086758,42.799999237060547
616.7280186101525,42.319999694824219
617.69864860089183,44.799999237060547
618.66908976055493,44.400001525878906
619.63934212659842,43.119998931884766
620.60940573646621,44.400001525878906
621.57928062759311,42.639999389648438
622.54896683741936,44.159999847412109
623.51846440335976,43.319999694824219
624.48777336282728,43.840000152587891
625.45689375322763,43.959999084472656
626.42582561195377,49.040000915527344
627.394568976395,49.2400016784668
628.363123883928,44.919998168945313
629.331490371922,45.799999237060547
630.299668477739,44.919998168945313
631.26765823873393,43.159999847412109
632.23545969224324,42
633.20307287561081,44.639999389648438
634.170497826155,44.7599983215332
635.137734581198,41.639999389648438
636.10478317805246,43.279998779296875
637.0716436540115,45.520000457763672
638.03831604637162,44.720001220703125
639.004800392413,45.119998931884766
639.97109672941588,45.639999389648438
640.9372050946422,43.400001525878906
641.90312552535215,45.159999847412109
642.86885805879137,43.319999694824219
643.83440273220367,44.7599983215332
644.79975958282012,38.560001373291016
645.76492864786451,42.720001220703125
646.72990996454973,46.200000762939453
647.69470357008322,43.040000915527344
648.6593095016633,45.520000457763672
649.6237277964774,43.880001068115234
650.58795849170929,43.840000152587891
651.5520016245282,44.279998779296875
652.51585723209973,43.560001373291016
653.4795253515731,42.439998626708984
654.44300602009935,41.7599983215332
655.406299274815,42.639999389648438
656.3694051528546,44.599998474121094
657.33232369132747,42.2400016784668
658.29505492735188,45.080001831054688
659.25759889803339,43.959999084472656
660.21995564046847,45.680000305175781
661.182125191739,44.720001220703125
662.14410758892154,45.720001220703125
663.10590286909064,41.560001373291016
664.067511069301,39.560001373291016
665.02893222660714,44.7599983215332
665.99016637806017,41.880001068115234
666.95121356068557,44.919998168945313
667.91207381151617,43.119998931884766
668.87274716756838,44.959999084472656
669.83323366584955,46.279998779296875
670.7935333433652,41.400001525878906
671.75364623710266,45.599998474121094
672.71357238405108,44.840000152587891
673.673311821185,45.720001220703125
674.63286458547191,43.200000762939453
675.59223071386987,45.880001068115234
676.55141024332806,41.319999694824219
677.51040321079017,43.799999237060547
678.46920965318714,42.080001831054688
679.42782960744807,42.7599983215332
680.38626311048392,46
681.34451019920562,41.840000152587891
682.30257091051317,43.200000762939453
683.26044528129387,45.360000610351563
684.21813334843318,44.7599983215332
685.17563514880567,44.479999542236328
686.13295071927132,42.560001373291016
687.0900800966956,44.040000915527344
688.04702331792032,42.840000152587891
689.00378041978729,41.200000762939453
689.96035143912923,43.439998626708984
