-773.51195264083617,0.30769231915473938
-772.26970635356884,-0.038461539894342422
-771.02770412717837,1.307692289352417
-769.785945910744,0.5
-768.5444316533667,0
-767.30316130416213,-0.26923078298568726
-766.06213481226041,1.7692307233810425
-764.821352126799,-0.8461538553237915
-763.58081319693338,2.192307710647583
-762.34051797182656,0.807692289352417
-761.10046640066685,-0.42307692766189575
-759.86065843263532,2.038461446762085
-758.62109401694215,-1.923076868057251
-757.38177310281208,1.1538461446762085
-756.14269563946254,-0.692307710647583
-754.90386157614739,-0.076923079788684845
-753.66527086213136,0.19230769574642181
-752.42692344666466,-0.6538461446762085
-751.188819279052,0.53846156597137451
-749.95095830857281,0.11538461595773697
-748.71334048454628,1.1538461446762085
-747.47596575629541,0.807692289352417
-746.23883407314679,-0.3461538553237915
-745.00194538445612,3.038461446762085
-743.76529963958274,0.11538461595773697
-742.52889678790052,-0.8461538553237915
-741.29273677879792,3.192307710647583
-740.05681956167064,0.30769231915473938
-738.82114508593622,0.61538463830947876
-737.5857133010195,0.76923078298568726
-736.35052415635982,1.076923131942749
-735.11557760140022,1.307692289352417
-733.88087358561643,2.038461446762085
-732.64641205848784,0.807692289352417
-731.41219296949384,-1.8461538553237915
-730.17821626814293,0.11538461595773697
-728.94448190395451,0.96153843402862549
-727.71098982645526,-1.076923131942749
-726.47773998518278,1.9615384340286255
-725.24473232970013,0.807692289352417
-724.01196680956673,-1.9615384340286255
-722.77944337437111,-0.61538463830947876
-721.5471619737018,1
-720.31512255716552,-1.1538461446762085
-719.08332507438354,0.53846156597137451
-717.85176947499167,-1.384615421295166
-716.62045570861846,1.076923131942749
-715.3893837249434,0.38461539149284363
-714.15855347362412,1.7307692766189575
-712.92796490434375,2.076923131942749
-711.69761796680723,-1.076923131942749
-710.46751261071586,0.5
-709.23764878579277,-1.2307692766189575
-708.00802644177929,0.23076923191547394
-706.77864552840947,0.6538461446762085
-705.549505995461,1.5384615659713745
-704.32060779268977,-1.1538461446762085
-703.09195086989894,0.19230769574642181
-701.86353517687348,0.61538463830947876
-700.63536066343477,3.269230842590332
-699.40742727940051,0.38461539149284363
-698.17973497461026,0.61538463830947876
-696.95228369891447,0.19230769574642181
-695.72507340217453,-0.26923078298568726
-694.49810403426636,-2.884615421295166
-693.27137554508408,-0.30769231915473938
-692.04488788451818,0.92307692766189575
-690.81864100249186,-0.53846156597137451
-689.59263484892472,-0.30769231915473938
-688.3668693737618,0.11538461595773697
-687.1413445269518,1.8461538553237915
-685.91606025846522,-0.3461538553237915
-684.69101651826531,0.76923078298568726
-683.466213256359,-0.88461536169052124
-682.24165042274217,-1.8461538553237915
-681.01732796742908,0.038461539894342422
-679.79324584045207,0.6538461446762085
-678.5694039918435,-0.11538461595773697
-677.34580237166847,0.61538463830947876
-676.12244092999572,-0.23076923191547394
-674.89931961689035,-0.19230769574642181
-673.67643838245749,0
-672.45379717679134,-1.615384578704834
-671.23139595001885,0.38461539149284363
-670.00923465226333,-1.076923131942749
-668.78731323367356,-0.076923079788684845
-667.56563164439831,-0.30769231915473938
-666.34418983461183,1.576923131942749
-665.122987754492,-1.4615384340286255
-663.90202535423487,0
-662.68130258404017,0.8461538553237915
-661.46081939413307,-1.2692307233810425
-660.240575734746,-0.92307692766189575
-659.0205715561151,-0.3461538553237915
-657.80080680850187,-1.192307710647583
-656.58128144217881,0.88461536169052124
-655.361995407422,1.807692289352417
-654.14294865453667,-1.5384615659713745
-652.9241411338171,-1.4615384340286255
-651.7055727955867,0.88461536169052124
-650.48724359018706,-0.88461536169052124
-649.26915346794885,0.23076923191547394
-648.05130237924277,1.807692289352417
-646.83369027443223,-1.7307692766189575
-645.61631710390611,-0.38461539149284363
-644.399182818046,-1.9615384340286255
-643.18228736727724,-1.5384615659713745
-641.96563070201046,0.61538463830947876
-640.74921277268186,1.192307710647583
-639.53303352973853,-0.11538461595773697
-638.31709292363485,0.38461539149284363
-637.101390904847,-0.038461539894342422
-635.88592742385481,-0.30769231915473938
-634.67070243115631,0.76923078298568726
-633.45571587726045,0.88461536169052124
-632.240967712687,-0.11538461595773697
-631.02645788797054,0.76923078298568726
-629.81218635365985,-0.57692307233810425
-628.59815306031123,1.6538461446762085
-627.38435795849182,-1.192307710647583
-626.17080099879786,1.5
-624.95748213181469,0.11538461595773697
-623.7444013081531,-0.26923078298568726
-622.53155847843846,1.7307692766189575
-621.31895359330338,0.15384615957736969
-620.10658660339141,1.0384615659713745
-618.89445745937155,1.7692307233810425
-617.68256611190191,-0.73076921701431274
-616.47091251167694,0.3461538553237915
-615.2594966093875,0.42307692766189575
-614.04831835574623,-0.57692307233810425
-612.83737770146945,-0.6538461446762085
-611.62667459729528,1.3461538553237915
-610.41620899397276,0.038461539894342422
-609.20598084225821,-1.5384615659713745
-607.99599009291524,-1.5384615659713745
-606.7862366967438,0.73076921701431274
-605.57672060452933,-0.38461539149284363
-604.36744176707907,-1.076923131942749
-603.15840013522575,2.076923131942749
-601.9495956597948,-0.807692289352417
-600.74102829162985,-0.92307692766189575
-599.53269798159636,-2.192307710647583
-598.32460468055979,1.5
-597.11674833940742,0.46153846383094788
-595.90912890903019,-0.807692289352417
-594.70174634034447,1.7307692766189575
-593.49460058426666,0.038461539894342422
-592.28769159173135,0
-591.08101931368037,0.30769231915473938
-589.87458370107379,1.2307692766189575
-588.66838470488256,0.92307692766189575
-587.46242227609218,-1.115384578704834
-586.25669636569182,0.6538461446762085
-585.05120692469245,-2.5
-583.8459539041196,0.73076921701431274
-582.64093725499515,0
-581.43615692836647,1.615384578704834
-580.23161287529365,-1.615384578704834
-579.02730504684951,-1.4615384340286255
-577.82323339410868,-1.1538461446762085
-576.61939786817129,2.384615421295166
-575.41579842013743,-1.4615384340286255
-574.21243500113269,1.115384578704834
-573.00930756228081,0.88461536169052124
-571.80641605473465,-1.6538461446762085
-570.60376042964162,-1.692307710647583
-569.40134063817277,-0.46153846383094788
-568.19915663151369,0.5
-566.9972083608518,0.076923079788684845
-565.79549577739454,-0.038461539894342422
-564.594018832353,0.92307692766189575
-563.39277747696906,0.42307692766189575
-562.19177166247209,-1.3461538553237915
-560.99100134013133,-1.5
-559.7904664612015,-1
-558.59016697696461,-0.8461538553237915
-557.39010283871175,-1.076923131942749
-556.19027399775041,0.038461539894342422
-554.99068040538987,0.3461538553237915
-553.79132201296306,-0.3461538553237915
-552.59219877181022,1.692307710647583
-551.39331063328973,0.11538461595773697
-550.19465754875273,-0.92307692766189575
-548.99623946958855,1.7307692766189575
-547.79805634717923,-3
-546.60010813293411,1.6538461446762085
-545.40239477826071,1.5384615659713745
-544.20491623458474,-1.7692307233810425
-543.0076724533501,-0.8461538553237915
-541.81066338600431,1.192307710647583
-540.6138889840131,1.192307710647583
-539.41734919884766,1.307692289352417
-538.22104398199917,-2.653846263885498
-537.02497328496611,0.61538463830947876
-535.82913705926148,1.2692307233810425
-534.63353525640559,-1.8461538553237915
-533.43816782793328,0.6538461446762085
-532.243034725403,-0.61538463830947876
-531.04813590036792,-0.30769231915473938
-529.85347130440277,1.1538461446762085
-528.65904088909519,-0.30769231915473938
-527.46484460603642,1.1538461446762085
-526.27088240683952,-0.92307692766189575
-525.07715424312846,-0.23076923191547394
-523.88366006653268,-1.384615421295166
-522.69039982870345,2.038461446762085
-521.49737348129383,-0.076923079788684845
-520.30458097597693,-0.807692289352417
-519.11202226443311,0.038461539894342422
-517.9196972983591,-1.0384615659713745
-516.72760602945891,-0.26923078298568726
-515.53574840945657,0.42307692766189575
-514.34412439008338,-0.30769231915473938
-513.15273392307427,-0.15384615957736969
-511.96157696019327,-0.6538461446762085
-510.77065345320443,-0.5
-509.57996335388816,-0.38461539149284363
-508.38950661403396,-0.6538461446762085
-507.19928318545135,-0.57692307233810425
-506.009293019948,0.46153846383094788
-504.81953606935895,-0.6538461446762085
-503.63001228552639,-0.6538461446762085
-502.44072162029261,-1.8461538553237915
-501.25166402552895,0.57692307233810425
-500.06283945311225,-0.076923079788684845
-498.87424785493022,0.6538461446762085
-497.68588918288151,0.076923079788684845
-496.4977633888866,1.192307710647583
-495.30987042485503,-0.38461539149284363
-494.12221024273822,-1.0384615659713745
-492.93478279447845,-0.807692289352417
-491.74758803203986,0.53846156597137451
-490.5606259073993,-0.88461536169052124
-489.37389637252818,-1.2307692766189575
-488.1873993794361,0.57692307233810425
-487.00113488013267,-0.5
-485.8151028266293,-0.88461536169052124
-484.62930317096834,-0.3461538553237915
-483.44373586519578,-0.19230769574642181
-482.25840086136122,1.9615384340286255
-481.07329811153795,-2.115384578704834
-479.88842756781014,0.3461538553237915
-478.70378918227289,-0.6538461446762085
-477.51938290702128,1.192307710647583
-476.33520869418317,-0.038461539894342422
-475.15126649588274,-1.1538461446762085
-473.96755626426784,-1.5384615659713745
-472.78407795148814,-0.076923079788684845
-471.60083150970968,-0.73076921701431274
-470.41781689110212,1.192307710647583
-469.23503404786607,-0.57692307233810425
-468.05248293220211,-2.346153736114502
-466.87016349631995,-0.5
-465.68807569244927,0.42307692766189575
-464.50621947281616,-0.15384615957736969
-463.32459478968667,-0.3461538553237915
-462.14320159531053,1.2307692766189575
-460.96203984196472,0
-459.78110948193535,0.19230769574642181
-458.6004104675194,-0.76923078298568726
-457.419942751023,0.19230769574642181
-456.239706284774,-1.2692307233810425
-455.05970102109859,-0.46153846383094788
-453.87992691234467,-0.53846156597137451
-452.70038391086928,0.076923079788684845
-451.52107196904217,-0.6538461446762085
-450.3419910392422,-1.923076868057251
-449.16314107386461,0.38461539149284363
-447.98452202531189,-2.230769157409668
-446.80613384600474,2.076923131942749
-445.62797648836386,-0.96153843402862549
-444.45004990483903,0.5
-443.27235404787461,-0.73076921701431274
-442.09488886994041,-0.57692307233810425
-440.91765432350803,0.76923078298568726
-439.74065036106913,-1.076923131942749
-438.56387693512079,-0.61538463830947876
-437.38733399817647,0.8461538553237915
-436.21102150276056,-0.38461539149284363
-435.03493940140834,0.38461539149284363
-433.859087646666,-0.38461539149284363
-432.6834661910907,-0.38461539149284363
-431.50807498725953,-2.153846263885498
-430.33291398774963,-0.038461539894342422
-429.15798314515814,-1.7307692766189575
-427.98328241209492,-1.692307710647583
-426.80881174117167,0.807692289352417
-425.63457108502189,-1.192307710647583
-424.46056039629184,-0.6538461446762085
-423.28677962762958,-2.115384578704834
-422.113228731705,0
-420.93990766119532,-0.11538461595773697
-419.76681636878857,1.576923131942749
-418.59395480718376,-0.26923078298568726
-417.4213229290981,0.19230769574642181
-416.24892068725239,-2.653846263885498
-415.07674803439113,0.30769231915473938
-413.90480492325514,-0.88461536169052124
-412.73309130660527,-2.307692289352417
-411.56160713721874,-2.269230842590332
-410.39035236788004,0.96153843402862549
-409.21932695137548,-1.576923131942749
-408.04853084052229,-1.3461538553237915
-406.87796398813043,-1.307692289352417
-405.70762634704261,0.11538461595773697
-404.53751787009242,-1.8461538553237915
-403.36763851014075,-1.615384578704834
-402.19798822004668,2.346153736114502
-401.02856695269838,-1.7307692766189575
-399.85937466097494,-1.076923131942749
-398.69041129778452,-1.6538461446762085
-397.52167681603896,-0.076923079788684845
-396.353171168661,-0.96153843402862549
-395.18489430858972,-1.884615421295166
-394.01684618877334,-0.92307692766189575
-392.84902676217644,0.11538461595773697
-391.68143598176539,1.8461538553237915
-390.51407380052297,-2.307692289352417
-389.3469401714483,-1.576923131942749
-388.18003504754779,-0.53846156597137451
-387.01335838184059,0.30769231915473938
-385.84691012736039,-2.653846263885498
-384.6806902371427,-0.26923078298568726
-383.51469866424304,0.46153846383094788
-382.34893536172967,-1.2307692766189575
-381.18340028268176,-0.692307710647583
-380.01809338018211,-1.0384615659713745
-378.85301460734081,-0.30769231915473938
-377.68816391725704,-1.576923131942749
-376.52354126307,-0.038461539894342422
-375.35914659789887,-1.2692307233810425
-374.19497987490831,-0.57692307233810425
-373.03104104724662,0.76923078298568726
-371.86733006808936,-2.269230842590332
-370.70384689061211,1.423076868057251
-369.54059146801774,-1.2692307233810425
-368.37756375350727,-2.615384578704834
-367.21476370029814,-2.846153736114502
-366.05219126162228,-0.76923078298568726
-364.8898463907135,-0.3461538553237915
-363.72772904083467,-0.6538461446762085
-362.56583916524323,-0.076923079788684845
-361.40417671721116,-0.076923079788684845
-360.24274165003226,-1.076923131942749
-359.081533917004,0.46153846383094788
-357.92055347143287,-1.2692307233810425
-356.75980026664365,-0.53846156597137451
-355.599274255972,-0.26923078298568726
-354.43897539276259,-2.461538553237915
-353.27890363036749,1.692307710647583
-352.11905892216055,-2.923076868057251
-350.95944122151559,0.38461539149284363
-349.80005048183375,-1.5384615659713745
-348.64088665651252,-1.2692307233810425
-347.48194969896213,-1.076923131942749
-346.32323956261644,-0.807692289352417
-345.1647562009075,-0.57692307233810425
-344.00649956729103,-0.3461538553237915
-342.84846961522635,-1.576923131942749
-341.69066629818008,-1.884615421295166
-340.53308956964429,-0.26923078298568726
-339.37573938310743,-1.8461538553237915
-338.2186156920834,-2.5
-337.06171845008612,-0.076923079788684845
-335.90504761065313,-1.423076868057251
-334.74860312731835,0.15384615957736969
-333.59238495363388,-2.307692289352417
-332.43639304317185,0.8461538553237915
-331.28062734950618,1.384615421295166
-330.12508782622172,-2.269230842590332
-328.96977442692332,-0.57692307233810425
-327.81468710521767,-1.192307710647583
-326.65982581472417,0.038461539894342422
-325.50519050908952,-0.076923079788684845
-324.35078114194584,-1.2692307233810425
-323.19659766695622,0.807692289352417
-322.042640037791,1.6538461446762085
-320.88890820812412,-1.192307710647583
-319.73540213164961,0.6538461446762085
-318.58212176207417,-2.384615421295166
-317.42906705310816,0.38461539149284363
-316.2762379584783,-0.8461538553237915
-315.12363443192226,-0.30769231915473938
-313.9712564271922,-1.6538461446762085
-312.81910389803852,-2.807692289352417
-311.66717679824615,-0.692307710647583
-310.51547508159092,0.6538461446762085
-309.36399870186324,-0.23076923191547394
-308.21274761287896,-2.923076868057251
-307.0617217684503,-0.92307692766189575
-305.91092112241131,-1.576923131942749
-304.7603456285924,-0.53846156597137451
-303.60999524085491,-0.19230769574642181
-302.45986991305472,-0.76923078298568726
-301.30996959907316,-2.846153736114502
-300.16029425279521,-1
-299.01084382811496,0.11538461595773697
-297.86161827894466,-0.46153846383094788
-296.71261755920386,-1.5
-295.563841622823,-1.2692307233810425
-294.41529042374714,-1.8461538553237915
-293.26696391593214,0.076923079788684845
-292.11886205333758,-2.230769157409668
-290.97098478994849,0.038461539894342422
-289.82333207974989,-0.15384615957736969
-288.67590387674136,0.076923079788684845
-287.52870013493884,0.73076921701431274
-286.38172080835648,2.038461446762085
-285.23496585103931,-1.1538461446762085
-284.08843521702511,-0.42307692766189575
-282.94212886037531,0.5
-281.79604673515678,-0.30769231915473938
-280.65018879545278,-0.807692289352417
-279.50455499534473,0.38461539149284363
-278.359145288945,0.26923078298568726
-277.21395963036048,-0.92307692766189575
-276.06899797372535,-0.8461538553237915
-274.92426027316469,1.692307710647583
-273.77974648283453,0.57692307233810425
-272.63545655689268,1.076923131942749
-271.49139044950425,-2.269230842590332
-270.34754811485618,0.6538461446762085
-269.20392950714449,-1.692307710647583
-268.06053458056886,2.653846263885498
-266.91736328934348,0.3461538553237915
-265.77441558769715,1.115384578704834
-264.631691429875,-0.038461539894342422
-263.48919077011669,0.30769231915473938
-262.34691356268377,0.61538463830947876
-261.20485976185773,-0.19230769574642181
-260.06302932191284,1.2692307233810425
-258.92142219715242,0.76923078298568726
-257.78003834187439,2.5
-256.63887771039481,0.57692307233810425
-255.49794025705341,1.7307692766189575
-254.35722593618084,0.23076923191547394
-253.216734702135,1.307692289352417
-252.076466509272,2.538461446762085
-250.93642131196611,2.461538553237915
-249.7965990646062,2.769230842590332
-248.65699972158654,0.30769231915473938
-247.51762323731782,3.653846263885498
-246.37846956621252,2
-245.23953866270131,1.4615384340286255
-244.1008304812367,2.115384578704834
-242.96234497625483,1.9615384340286255
-241.8240821022282,2.307692289352417
-240.68604181363298,4.230769157409668
-239.54822406495077,1.1538461446762085
-238.41062881068319,2.615384578704834
-237.27325600533186,2.307692289352417
-236.13610560342386,3.038461446762085
-234.99917755948991,-0.692307710647583
-233.862471828068,3.5
-232.72598836371435,2.384615421295166
-231.58972712099603,0.61538463830947876
-230.45368805447833,2.076923131942749
-229.3178711187611,3.230769157409668
-228.18227626843509,3.5
-227.04690345811105,3.923076868057251
-225.91175264241065,2.076923131942749
-224.77682377596102,1.7307692766189575
-223.64211681341294,4.8076925277709961
-222.507631709419,2.961538553237915
-221.37336841863544,4.9615383148193359
-220.2393268957494,3.846153736114502
-219.10550709544077,4.6923074722290039
-217.97190897241308,6.615384578704834
-216.83853248137348,4.153846263885498
-215.70537757704551,5.6923074722290039
-214.57244421415817,5.653846263885498
-213.43973234745863,6.269230842590332
-212.3072419316959,7.3076925277709961
-211.1749729216408,5.384615421295166
-210.042925272066,6.730769157409668
-208.91109893776047,5.884615421295166
-207.77949387352419,6
-206.64811003416798,6.115384578704834
-205.5169473745118,7
-204.38600584938649,7
-203.25528541363383,6.42307710647583
-202.12478602211559,6.846153736114502
-200.99450762968627,8.1153850555419922
-199.86445019123312,7.153846263885498
-198.73461366164156,7.0384616851806641
-197.60499799580612,7.230769157409668
-196.47560314863586,9.1923074722290039
-195.34642907505804,7.92307710647583
-194.21747572999993,6.8076925277709961
-193.0887430684088,4.769230842590332
-191.96023104523192,8.1153850555419922
-190.83193961544202,7.615384578704834
-189.70386873401003,8.8076925277709961
-188.57601835592868,7.1923074722290039
-187.44838843618891,5.230769157409668
-186.32097892980892,7.1923074722290039
-185.19378979179783,5.153846263885498
-184.06682097719931,7.1923074722290039
-182.94007244104978,10
-181.81354413840563,7.07692289352417
-180.68723602432692,6.92307710647583
-179.56114805389007,7.9615383148193359
-178.43528018218967,7.57692289352417
-177.30963236431307,6.269230842590332
-176.18420455537307,9
-175.05899671049156,8.769230842590332
-173.93400878479952,9.769230842590332
-172.8092407334334,8.6153850555419922
-171.68469251155148,8
-170.56036407431748,10.230769157409668
-169.43625537690059,8.269230842590332
-168.31236637449183,10.576923370361328
-167.18869702228221,9.4230766296386719
-166.06524727548822,9.65384578704834
-164.94201708932451,10.192307472229004
-163.81900641901848,12.538461685180664
-162.69621521981026,10.15384578704834
-161.57364344695634,11.769230842590332
-160.45129105571505,14.538461685180664
-159.32915800136652,15.230769157409668
-158.20724423918546,12.769230842590332
-157.08554972447382,15.192307472229004
-155.96407441253541,17.115385055541992
-154.84281825868857,16.69230842590332
-153.72178121826437,18.19230842590332
-152.60096324659753,21.615385055541992
-151.48036429904278,20.115385055541992
-150.35998433095847,22.5
-149.23982329771206,23.923076629638672
-148.11988115469831,24.038461685180664
-147.0001578572992,26.346153259277344
-145.88065336092768,27.076923370361328
-144.76136762099122,30.80769157409668
-143.64230059293004,31.923076629638672
-142.5234522321698,30.384614944458008
-141.40482249415982,34.384616851806641
-140.28641133436759,38.692306518554688
-139.16821870825697,36.961540222167969
-138.05024457131003,39.769229888916016
-136.93248887901791,43.192306518554688
-135.81495158688631,44.230770111083984
-134.69763265042639,44.346153259277344
-133.58053202516567,47.076923370361328
-132.46364966663896,47.807693481445313
-131.34698553039198,49.346153259277344
-130.23053957198317,52.653846740722656
-129.11431174697645,53.076923370361328
-127.99830201095756,53.730770111083984
-126.8825103195104,53.730770111083984
-125.76693662824073,53.961540222167969
-124.65158089275792,56.5
-123.53644306868227,58.884616851806641
-122.42152311165228,62.884616851806641
-121.30682097731187,60.923076629638672
-120.19233662130864,65.923080444335938
-119.07806999931199,67.076919555664063
-117.96402106700589,71.384613037109375
-116.85018978006883,73.115386962890625
-115.73657609419934,75.692306518554688
-114.62317996511774,76.192306518554688
-113.51000134852802,78.538459777832031
-112.39704020017234,81.615386962890625
-111.28429647578741,86.076919555664063
-110.17177013112814,92.576919555664063
-109.05946112195488,90.153846740722656
-107.94736940404619,97.423080444335938
-106.83549493318606,98.269233703613281
-105.72383766516577,99.576919555664063
-104.612397555793,102.5
-103.50117456088628,108.30769348144531
-102.39016863627148,109.69230651855469
-101.27937973778899,113.65384674072266
-100.16880782129374,117.73076629638672
-99.058452842637053,122.5
-97.9483147576957,121.23076629638672
-96.838393522348269,133.34616088867188
-95.728689092489731,134.57691955566406
-94.6192014240205,143.34616088867188
-93.509930472861015,146.73077392578125
-92.400876194924422,153.11538696289063
-91.2920385461548,154.80769348144531
-90.183417482501682,157.61538696289063
-89.075012959910964,154.15383911132813
-87.9668249343631,153.73077392578125
-86.85885336182946,155.5
-85.751098198299587,150.76922607421875
-84.643559399773949,153.42308044433594
-83.536236922265743,153.96153259277344
-82.429130721789988,156.76922607421875
-81.322240754388986,153.07691955566406
-80.215566976095943,159.03846740722656
-79.109109342967713,157.61538696289063
-78.002867811070246,159.96153259277344
-76.896842336478585,163.5
-75.791032875273231,163.80769348144531
-74.685439383558332,169.38461303710938
-73.580061817436217,171.11538696289063
-72.474900133025585,170.73077392578125
-71.3699542864506,180.26922607421875
-70.265224233859044,183
-69.160709931396923,193.11538696289063
-68.05641133521749,196.76922607421875
-66.952328401503109,207.96153259277344
-65.848461086430689,217.96153259277344
-64.7448093461935,222.65383911132813
-63.641373136992115,222.26922607421875
-62.538152415045261,222.65383911132813
-61.435147136569867,216.11538696289063
-60.332357257806507,212.07691955566406
-59.229782735001208,206.96153259277344
-58.127423524405458,202.23077392578125
-57.025279582292569,201.11538696289063
-55.923350864935855,202.34616088867188
-54.821637328623183,207.19230651855469
-53.720138929656969,212.42308044433594
-52.618855624345088,209.84616088867188
-51.517787369006328,220.15383911132813
-50.41693411997403,223.34616088867188
-49.316295833586992,241.38461303710938
-48.215872466198562,268.5384521484375
-47.115663974169365,348.26922607421875
-46.015670313878218,454.69232177734375
-44.915891441702115,585.576904296875
-43.816327314034424,636.0384521484375
-42.716977887288522,593.34613037109375
-41.617843117875964,509.92306518554688
-40.518922962221041,452.88461303710938
-39.420217376760775,443.07693481445313
-38.3217263179431,454.26922607421875
-37.223449742226876,494.11538696289063
-36.125387606081858,543.3846435546875
-35.027539865983272,556.6153564453125
-33.929906478420889,562.5
-32.832487399897218,599.3846435546875
-31.735282586923859,714.6153564453125
-30.638291996019689,921.26922607421875
-29.541515583716318,1139.4615478515625
-28.44495330655991,1341.8077392578125
-27.348605121096625,1308.84619140625
-26.252470983896274,1080.076904296875
-25.156550851528664,887.5
-24.060844680578157,765.80767822265625
-22.965352427649123,649.076904296875
-21.870074049333198,558.3846435546875
-20.775009502252942,489.9615478515625
-19.680158743038191,455.76922607421875
-18.585521728322419,429.34616088867188
-17.491098414751832,411.38461303710938
-16.396888758989007,401.34616088867188
-15.302892717698342,392.11538696289063
-14.209110247560602,387.4615478515625
-13.115541305269289,388.5384521484375
-12.022185847514265,394.57693481445313
-10.929043831019953,391
-9.8361152124980435,404.57693481445313
-8.7433999486820539,419.4615478515625
-7.65089799631096,435.92306518554688
-6.5586093121492013,394.88461303710938
-5.466533852946668,277.65383911132813
-4.3746715754823526,81.307693481445313
-3.2830224365425238,38.423076629638672
-2.1915863929170882,51.076923370361328
-1.1003634014141426,87.576919555664063
-0.0093534188454214018,138.76922607421875
1.0814435979573318,84.730766296386719
2.1720276921641926,26.30769157409668
3.2623989069197705,21.461538314819336
4.35255728537777,97.115386962890625
5.4425028706609737,314.26922607421875
6.5322357058976195,415.4615478515625
7.6217558341977565,441.15383911132813
8.7110632986587,418.34616088867188
9.8001581423777679,406.9615478515625
10.889040408424989,404.23077392578125
11.977710139883129,413.0384521484375
13.06616737980039,411.73077392578125
14.154412171230433,415.65383911132813
15.242444557208728,426.26922607421875
16.330264580770745,429.92306518554688
17.417872284928308,451.26922607421875
18.50526771269142,475.61538696289063
19.592450907051898,502.0384521484375
20.679421910997917,557.73077392578125
21.766180767510377,639.076904296875
22.852727519550172,754.30767822265625
23.939062210076372,886.076904296875
25.025184882029862,1042.9615478515625
26.111095578347886,1269.3846435546875
27.196794341953137,1484.34619140625
28.28228121576285,1449.5384521484375
29.367556242677892,1212.423095703125
30.452619465586395,944.6153564453125
31.537470927380127,757.0384521484375
32.622110670923576,649.15386962890625
33.706538739086682,622.69232177734375
34.790755174713922,635
35.874760020649774,603.34613037109375
36.95855331972416,558.5
38.04213511476155,508.4615478515625
39.125505448568219,505.38461303710938
40.208664363943171,528.6153564453125
41.291611903676312,599.5384521484375
42.37434811055391,701.423095703125
43.45687302733495,746.423095703125
44.539186696785691,664.73077392578125
45.621289161648747,521.5
46.703180464664911,393.5384521484375
47.784860648560425,317.23077392578125
48.866329756052437,288.80767822265625
49.947587829856275,264.9615478515625
51.028634912656344,257.15383911132813
52.109471047146144,259.19232177734375
53.190096275999167,250.15383911132813
54.270510641885267,247.61538696289063
55.350714187454287,248.73077392578125
56.430706955356072,248.88461303710938
57.5104889882241,247.34616088867188
58.590060328684558,253.65383911132813
59.669421019347283,255.92308044433594
60.7485711028221,261.65383911132813
61.82751062170064,271.0384521484375
62.906239618561813,281.19232177734375
63.984758135989978,277.26922607421875
65.063066216536754,269.30767822265625
66.141163902764674,261.23077392578125
67.219051237207168,248.80769348144531
68.29672826240494,242.03846740722656
69.374195020876869,234.42308044433594
70.4514515551291,226.80769348144531
71.528497907673227,220.92308044433594
72.605334120997213,221.80769348144531
73.681960237579915,216.73077392578125
74.758376299892916,215.73077392578125
75.8345823503987,213.69230651855469
76.910578431545218,209.61538696289063
77.986364585774936,210.23077392578125
79.061940855521243,201.26922607421875
80.137307283193877,207.03846740722656
81.212463911211671,205.84616088867188
82.28741078197163,207.26922607421875
83.362147937861664,203.61538696289063
84.436675421262407,204.61538696289063
85.51099327454358,203.30769348144531
86.58510154006035,203.34616088867188
87.659000260162429,206.5
88.7326894771868,214.03846740722656
89.80616923346679,215.53846740722656
90.879439571315743,214
91.952500533045168,208.11538696289063
93.025352160946568,197.19230651855469
94.097994497313266,195.11538696289063
95.170427584422214,189.34616088867188
96.242651464532173,184.46153259277344
97.314666179911,172.61538696289063
98.386471772804725,172.96153259277344
99.458068285441186,164.5
100.52945576005368,159.80769348144531
101.60063423885185,156.19230651855469
102.67160376405081,153.92308044433594
103.74236437784384,152.76922607421875
104.81291612240966,144.57691955566406
105.88325903993427,145.5
106.95339317257822,140.53846740722656
108.02331856250021,134.53846740722656
109.09303525183896,131.92308044433594
110.16254328273681,129.15383911132813
111.23184269731064,126.65384674072266
112.30093353768643,120.34615325927734
113.36981584596106,119.65384674072266
114.43848966423138,115.92308044433594
115.50695503458155,111.46154022216797
116.57521199908842,107.88461303710938
117.64326059981613,106.15384674072266
118.71110087881789,100.96154022216797
119.77873287813418,98.961540222167969
120.8461566398073,96.615386962890625
121.91337220585774,94.538459777832031
122.98037961829687,91.346153259277344
124.04717891912696,90.653846740722656
125.11377015035214,88.846153259277344
126.18015335394557,85.115386962890625
127.24632857188772,86.538459777832031
128.31229584614084,82.615386962890625
129.37805521865448,82.461540222167969
130.44360673138181,75.846153259277344
131.50895042624506,79.115386962890625
132.57408634517378,75.653846740722656
133.63901453007747,77.730766296386719
134.70373502286202,72.230766296386719
135.76824786542602,69.307693481445313
136.83255309964807,67.961540222167969
137.89665076739402,65.538459777832031
138.96054091054066,61.692306518554688
140.024223570932,60.961540222167969
141.08769879041392,53.346153259277344
142.1509666108177,54.076923370361328
143.214027073971,49.307693481445313
144.27688022168513,48.038459777832031
145.33952609575863,46.346153259277344
146.40196473799006,43.307693481445313
147.46419619015978,40.653846740722656
148.52622049404272,39.576923370361328
149.58803769140104,36.307693481445313
150.64964782398602,36.461540222167969
151.71105093354345,33.846153259277344
152.77224706180459,34.730770111083984
153.83323625049343,31.615385055541992
154.89401854132302,30.69230842590332
155.95459397599734,27
157.01496259620762,29.5
158.07512444363783,26.19230842590332
159.13507955996283,24.30769157409668
160.19482798684112,21.5
161.25436976592937,24.5
162.31370493887334,20.884614944458008
163.37283354730243,21.538461685180664
164.4317556328424,23.538461685180664
165.49047123710079,19.19230842590332
166.54898040169246,17.730770111083984
167.60728316820132,17.923076629638672
168.66537957821311,16.30769157409668
169.72326967330264,16.923076629638672
170.780953495032,14.076923370361328
171.83843108495967,14.576923370361328
172.89570248462041,18.730770111083984
173.95276773555634,14.15384578704834
175.00962687929132,16.038461685180664
176.06627995733652,14.461538314819336
177.12272701119764,15
178.178968082364,15.230769157409668
179.23500321232495,13.038461685180664
180.2908324425498,15.615385055541992
181.34645581451332,14.576923370361328
182.40187336966119,12.423076629638672
183.45708514943908,13.192307472229004
184.51209119528539,13.692307472229004
185.56689154862397,12.076923370361328
186.62148625086775,14
187.67587534342056,12.961538314819336
188.7300588676826,12.423076629638672
189.78403686503225,13.84615421295166
190.83780937685697,15.34615421295166
191.89137644451148,12.807692527770996
192.94473810935415,14.576923370361328
193.9978944127306,13.230769157409668
195.050845395981,14.307692527770996
196.10359110042373,13.807692527770996
197.15613156738254,14.884614944458008
198.20846683816126,13.538461685180664
199.26059695405638,13.692307472229004
200.31252195635352,14.384614944458008
201.36424188632918,14.692307472229004
202.4157567852526,16.5
203.4670666943839,12.34615421295166
204.51817165496323,15.807692527770996
205.56907170823069,11.615385055541992
206.61976689541734,15
207.670257257736,14.076923370361328
208.72054283640318,11.692307472229004
209.77062367260442,13.115385055541992
210.820499807538,13.65384578704834
211.8701712823804,12.730769157409668
212.91963813829716,11.5
213.96890041645383,11.230769157409668
215.01795815799051,9.9230766296386719
216.06681140405453,11.192307472229004
217.11546019577327,11.576923370361328
218.16390457426678,12.307692527770996
219.2121445806406,9.8846149444580078
220.26018025599478,9.5769233703613281
221.30801164143122,7.9615383148193359
222.35563877801724,10.307692527770996
223.40306170683289,8.5
224.45028046893094,8.0769233703613281
225.49729510536963,10.307692527770996
226.54410565718536,8.5384616851806641
227.59071216541633,10.230769157409668
228.6371146710826,6.42307710647583
229.68331321518963,8.5384616851806641
230.72930783874654,8.230769157409668
231.77509858274425,5.6923074722290039
232.82068548816642,7.884615421295166
233.86606859598396,4.384615421295166
234.91124794716416,7.153846263885498
235.95622358265609,6.6923074722290039
237.00099554340886,6.42307710647583
238.04556387035336,6.8076925277709961
239.08992860441322,5.4615383148193359
240.13408978650659,8.1923074722290039
241.1780474575371,4.42307710647583
242.22180165840109,4.42307710647583
243.26535242998034,6.0384616851806641
244.30869981315118,4.653846263885498
245.35184384878812,6.769230842590332
246.39478457773839,3.884615421295166
247.43752204085104,3.807692289352417
248.48005627896237,6.92307710647583
249.52238733290687,5.153846263885498
250.56451524348995,7.5
251.60644005152972,6.3076925277709961
252.64816179782065,4.653846263885498
253.68968052315358,5.57692289352417
254.730996268303,4.8076925277709961
255.77210907403787,7.730769157409668
256.81301898112542,4.07692289352417
257.85372603030919,5
258.89423026233089,3.769230842590332
259.93453171791953,4.42307710647583
260.9746304377968,4.0384616851806641
262.01452646267171,1.884615421295166
263.05421983325323,2.038461446762085
264.09371059022669,1.7692307233810425
265.13299877427562,4.4615383148193359
266.1720844260708,2.730769157409668
267.21096758627755,1.2307692766189575
268.24964829555029,3.346153736114502
269.2881265945307,4.1923074722290039
270.32640252385318,2.807692289352417
271.3644761241394,0.92307692766189575
272.40234743601104,2.115384578704834
273.44001650006248,1.923076868057251
274.47748335689721,0.38461539149284363
275.51474804710051,-0.38461539149284363
276.55181061124858,2.615384578704834
277.58867108990307,1.807692289352417
278.6253295236238,0.23076923191547394
279.66178595296151,0.15384615957736969
280.69804041844691,1.692307710647583
281.73409296061618,1.615384578704834
282.76994361998004,0.5
283.805592437051,2.307692289352417
284.84103945233073,3.038461446762085
285.87628470630625,0.88461536169052124
286.91132823945736,-0.53846156597137451
287.94617009225294,-0.96153843402862549
288.98081030516005,2.423076868057251
290.01524891862209,1.5384615659713745
291.04948597308794,-0.30769231915473938
292.08352150898645,1.923076868057251
293.11735556673921,0
294.1509881867587,-1.423076868057251
295.18441940945377,0.46153846383094788
296.21764927521144,1.2307692766189575
297.25067782442056,-0.30769231915473938
298.2835050974536,0.3461538553237915
299.31613113467938,-0.57692307233810425
300.34855597644855,0.53846156597137451
301.38077966311357,0.42307692766189575
302.41280223500326,-0.19230769574642181
303.44462373245005,0.11538461595773697
304.47624419576641,0.076923079788684845
305.50766366526477,-1.9615384340286255
306.53888218124666,-1.076923131942749
307.56989978399361,-0.96153843402862549
308.60071651379076,1.576923131942749
309.63133241090145,-0.26923078298568726
310.66174751559265,0.96153843402862549
311.69196186811314,-2.076923131942749
312.72197550869896,1.5
313.7517884775898,1.923076868057251
314.78140081500351,-0.23076923191547394
315.81081256115249,0
316.84002375624368,-1.923076868057251
317.86903444046584,0.57692307233810425
318.89784465400771,-0.15384615957736969
319.92645443703987,-0.61538463830947876
320.95486382973104,-2.153846263885498
321.98307287223361,0.76923078298568726
323.01108160469812,-0.38461539149284363
324.03889006725694,0.76923078298568726
325.06649830004426,-0.53846156597137451
326.09390634316696,1.5
327.12111423674287,-2.230769157409668
328.14812202086614,-0.23076923191547394
329.1749297356273,-1.9615384340286255
330.20153742110597,-1.5
331.22794511737266,-0.26923078298568726
332.25415286449424,0.11538461595773697
333.28016070251033,-0.96153843402862549
334.30596867147324,-1.076923131942749
335.33157681140983,-3.192307710647583
336.356985162347,-0.96153843402862549
337.38219376429515,-1.8461538553237915
338.40720265726304,-2.769230842590332
339.4320118812393,-0.57692307233810425
340.45662147621442,-1.1538461446762085
341.48103148216251,-0.92307692766189575
342.50524193905039,-1.192307710647583
343.52925288683764,0.96153843402862549
344.55306436546562,-1.9615384340286255
345.57667641487933,-1.7692307233810425
346.60008907500196,0.8461538553237915
347.62330238575669,-1.6538461446762085
348.6463163870576,0.3461538553237915
349.66913111879694,-1.5
350.691746620867,-1.2307692766189575
351.71416293315815,-0.26923078298568726
352.73638009553179,-1.0384615659713745
353.75839814785832,-2.692307710647583
354.78021712998816,0.26923078298568726
355.80183708176628,-2.846153736114502
356.82325804302855,-1.884615421295166
357.84448005359627,-0.19230769574642181
358.86550315329259,-1.076923131942749
359.88632738192064,-0.6538461446762085
360.90695277927625,-1.1538461446762085
361.9273793851462,-1.2692307233810425
362.94760723931722,-0.88461536169052124
363.9676363815488,-1.192307710647583
364.98746685160586,-0.38461539149284363
366.00709868923332,-1.9615384340286255
367.02653193418337,-1.0384615659713745
368.0457666261791,-1.5
369.06480280494725,-1.115384578704834
370.08364051019453,-1.5384615659713745
371.10227978162948,1.5
372.12072065894608,-3.076923131942749
373.13896318183288,-2.269230842590332
374.15700738995474,-2.115384578704834
375.17485332298929,-2.384615421295166
376.1925010205905,-3.076923131942749
377.20995052240505,-0.53846156597137451
378.22720186806691,-1.2692307233810425
379.24425509721186,-2.269230842590332
380.26111024945749,-1
381.27776736441228,-2.115384578704834
382.29422648167929,-0.692307710647583
383.31048764085062,-1
384.3265508815075,-1.6538461446762085
385.34241624322385,-2.346153736114502
386.35808376556452,-2.230769157409668
387.37355348807978,-1.2307692766189575
388.38882545031993,-1.076923131942749
389.40389969181524,-2.230769157409668
390.41877625210145,-0.692307710647583
391.433455170687,-0.23076923191547394
392.447936487084,-0.3461538553237915
393.46222024079,-0.6538461446762085
394.476306471297,-0.88461536169052124
395.49019521808259,0.19230769574642181
396.50388652061883,1
397.51738041836506,-0.3461538553237915
398.530676950777,-1.192307710647583
399.54377615729936,0.61538463830947876
400.55667807736063,-1.3461538553237915
401.5693827503892,1.576923131942749
402.5818902157971,-1.076923131942749
403.59420051299639,0.38461539149284363
404.60631368137911,0.42307692766189575
405.61822976033545,-2.846153736114502
406.62994878923928,-1.3461538553237915
407.64147080746443,0.19230769574642181
408.6527958543702,-0.5
409.66392396930314,-1
410.67485519161164,-0.807692289352417
411.68558956062407,-2.192307710647583
412.69612711565969,-1.7307692766189575
413.70646789603961,-1
414.71661194106127,-0.88461536169052124
415.72655929002758,-0.57692307233810425
416.73630998222143,-2.192307710647583
417.745864056913,0.23076923191547394
418.75522155338149,-2.461538553237915
419.76438251087711,-1.307692289352417
420.77334696865182,-2.461538553237915
421.78211496594486,-1.423076868057251
422.79068654198818,-0.5
423.79906173600284,-2.884615421295166
424.80724058720261,-1.2692307233810425
425.81522313478672,-1.807692289352417
426.82300941795256,-1.7692307233810425
427.83059947589027,-1.2307692766189575
428.8379933477645,0.11538461595773697
429.84519107274537,0.42307692766189575
430.85219268999572,0
431.85899823866021,-0.96153843402862549
432.86560775787439,-0.53846156597137451
433.87202128677382,-3.846153736114502
434.8782388644795,-0.15384615957736969
435.88426053009243,0.3461538553237915
436.89008632272635,-2.961538553237915
437.89571628147496,-3.384615421295166
438.9011504454138,-2.423076868057251
439.90638885362387,-3.692307710647583
440.91143154516431,0.038461539894342422
441.91627855910519,0
442.92092993447841,-1.384615421295166
443.92538571033219,-2.576923131942749
444.92964592569297,-1.1538461446762085
445.93371061957805,-1.4615384340286255
446.93757983100477,-2.961538553237915
447.94125359896861,-0.92307692766189575
448.94473196246508,-2.230769157409668
449.94801496047694,-1.4615384340286255
450.95110263197967,-1.3461538553237915
451.953995015936,-0.88461536169052124
452.95669215130511,-3.576923131942749
453.95919407703332,-0.76923078298568726
454.96150083205976,-1.0384615659713745
455.96361245530716,-0.19230769574642181
456.96552898570553,-1.4615384340286255
457.96725046215579,0.30769231915473938
458.96877692356611,-0.3461538553237915
459.97010840882649,-0.692307710647583
460.971244956816,-1.615384578704834
461.972186606421,-0.692307710647583
462.97293339649332,-1.076923131942749
463.97348536589743,-1.115384578704834
464.97384255347788,-3.615384578704834
465.97400499807009,2.423076868057251
466.97397273850584,-3.576923131942749
467.97374581360418,-0.15384615957736969
468.97332426217872,-1.923076868057251
469.9727081230285,-0.15384615957736969
470.97189743494346,1.0384615659713745
471.97089223671173,-2.307692289352417
472.96969256710508,-0.076923079788684845
473.96829846489163,-0.23076923191547394
474.96670996882312,1.923076868057251
475.96492711765313,0.96153843402862549
476.96294995011704,-1.1538461446762085
477.96077850494112,-0.92307692766189575
478.958412820848,-2.576923131942749
479.95585293654949,-0.19230769574642181
480.95309889074997,0.46153846383094788
481.95015072213755,-0.46153846383094788
482.94700846940214,0.15384615957736969
483.94367217121362,-2.807692289352417
484.94014186624008,-1.423076868057251
485.93641759313687,-1.807692289352417
486.93249939055568,-0.5
487.92838729713003,0.73076921701431274
488.92408135149708,-0.23076923191547394
489.91958159227397,-1.6538461446762085
490.91488805807057,-1.115384578704834
491.9100007874913,-0.3461538553237915
492.90491981913328,-2.423076868057251
493.89964519157547,0.038461539894342422
494.89417694339863,-2.153846263885498
495.88851511317262,-0.23076923191547394
496.88265973944726,-1
497.87661086077605,-3.307692289352417
498.87036851569792,-3.038461446762085
499.86393274274451,-0.6538461446762085
500.8573035804402,-1.2307692766189575
501.85048106729482,0.26923078298568726
502.84346524181092,-1.7692307233810425
503.83625614248922,-0.23076923191547394
504.82885380781045,-0.692307710647583
505.82125827625532,-0.692307710647583
506.81346958628819,-1.4615384340286255
507.80548777637341,-2
508.79731288496077,0.076923079788684845
509.78894495048735,-0.38461539149284363
510.7803840113902,-2.076923131942749
511.77163010608638,-1.807692289352417
512.7626832729984,0.26923078298568726
513.753543550527,-1.423076868057251
514.74421097707091,-2.5
515.73468559101457,1.2692307233810425
516.72496743074043,0.076923079788684845
517.71505653461827,-0.692307710647583
518.7049529410051,-2.653846263885498
519.69465668825978,0.26923078298568726
520.68416781471751,-2.384615421295166
521.67348635871713,-0.76923078298568726
522.6626123585811,-0.96153843402862549
523.6515458526319,-1.5384615659713745
524.64028687916834,-2.5
525.62883547649471,-0.11538461595773697
526.61719168289892,-0.23076923191547394
527.60535553665977,-3.615384578704834
528.59332707605427,1.2307692766189575
529.58110633933939,-1.307692289352417
530.5686933647703,-1.2692307233810425
531.55608819059671,-0.61538463830947876
532.543290855052,1.5
533.53030139635848,-2.576923131942749
534.517119852746,-0.57692307233810425
535.50374626241319,-0.76923078298568726
536.49018066356621,-0.61538463830947876
537.47642309439289,-3.615384578704834
538.46247359308109,-3.269230842590332
539.44833219780412,0.73076921701431274
540.43399894672075,-1.884615421295166
541.419473877997,-1.2692307233810425
542.40475702977346,-1.5384615659713745
543.38984844019069,-1.076923131942749
544.37474814737834,-0.076923079788684845
545.35945618945516,1.115384578704834
546.3439726045417,-0.26923078298568726
547.32829743073307,0.38461539149284363
548.31243070612072,0.53846156597137451
549.29637246879975,1.6538461446762085
550.28012275683977,-1.7307692766189575
551.26368160831407,-2.230769157409668
552.24704906127408,-0.19230769574642181
553.23022515377488,-1.5
554.21320992386063,-3.307692289352417
555.19600340955367,0.26923078298568726
556.1786056488927,0.53846156597137451
557.16101667987823,-1.423076868057251
558.14323654052532,0.807692289352417
559.12526526882721,-1.5
560.10710290277348,-0.692307710647583
561.088749480341,0.076923079788684845
562.07020503950662,-3.884615421295166
563.0514696182272,-2.076923131942749
564.03254325445778,-1.0384615659713745
565.01342598614065,-0.88461536169052124
565.99411785121265,-0.38461539149284363
566.97461888760517,-1.8461538553237915
567.9549291332296,-1
568.93504862599912,-2.730769157409668
569.91497740381055,0.15384615957736969
570.89471550455892,-2.346153736114502
571.8742629661283,-0.30769231915473938
572.85361982638642,0.76923078298568726
573.83278612320282,-0.26923078298568726
574.81176189443613,-1.3461538553237915
575.79054717792678,-0.96153843402862549
576.76914201152067,-0.46153846383094788
577.747546433051,-2.038461446762085
578.72576048033079,1.6538461446762085
579.70378419117333,-1.2692307233810425
580.6816176033899,0.53846156597137451
581.65926075476636,-2.269230842590332
582.63671368309952,-1.2307692766189575
583.613976426157,0.6538461446762085
584.59104902171384,-0.5
585.56793150752856,-2.769230842590332
586.54462392135247,-0.42307692766189575
587.52112630092961,0.38461539149284363
588.49743868399491,0.73076921701431274
589.473561108267,-2.076923131942749
590.44949361146973,-1.884615421295166
591.42523623130546,-0.11538461595773697
592.40078900547815,-2.230769157409668
593.37615197168088,0.8461538553237915
594.35132516758313,-1.2307692766189575
595.32630863086888,-0.76923078298568726
596.30110239920032,-0.5
597.27570651022688,1.3461538553237915
598.25012100160166,-1.692307710647583
599.22434591095953,-1.615384578704834
600.19838127593539,-0.15384615957736969
601.17222713414048,-0.15384615957736969
602.145883523197,-1.7692307233810425
603.11935048069972,-0.23076923191547394
604.09262804424907,-1.384615421295166
605.06571625142715,-1.884615421295166
606.03861513981246,-0.76923078298568726
607.01132474697624,-0.73076921701431274
607.98384511047152,-2.115384578704834
608.95617626785679,-1.6538461446762085
609.92831825667054,-1.7307692766189575
610.90027111445124,-1.1538461446762085
611.87203487871375,-1
612.84360958698562,-1.307692289352417
613.81499527677443,0.30769231915473938
614.78619198556953,-1.5384615659713745
615.75719975086758,-0.30769231915473938
616.7280186101525,-1.3461538553237915
617.69864860089183,1.3461538553237915
618.66908976055493,-2.961538553237915
619.63934212659842,-2
620.60940573646621,0.076923079788684845
621.57928062759311,-0.53846156597137451
622.54896683741936,0.3461538553237915
623.51846440335976,-0.38461539149284363
624.48777336282728,-1
625.45689375322763,-0.5
626.42582561195377,0.30769231915473938
627.394568976395,-0.6538461446762085
628.363123883928,-1.115384578704834
629.331490371922,-1.115384578704834
630.299668477739,0.53846156597137451
631.26765823873393,0.61538463830947876
632.23545969224324,-0.57692307233810425
633.20307287561081,-0.53846156597137451
634.170497826155,0.46153846383094788
635.137734581198,-0.23076923191547394
636.10478317805246,0.076923079788684845
637.0716436540115,0.807692289352417
638.03831604637162,0.5
639.004800392413,-0.42307692766189575
639.97109672941588,-0.076923079788684845
640.9372050946422,-1.4615384340286255
641.90312552535215,-2.269230842590332
642.86885805879137,-0.88461536169052124
643.83440273220367,-0.88461536169052124
644.79975958282012,-3.307692289352417
645.76492864786451,2.538461446762085
646.72990996454973,0.46153846383094788
647.69470357008322,-1
648.6593095016633,-0.26923078298568726
649.6237277964774,0.5
650.58795849170929,-1.807692289352417
651.5520016245282,-0.23076923191547394
652.51585723209973,1.2692307233810425
653.4795253515731,-0.23076923191547394
654.44300602009935,0.30769231915473938
655.406299274815,2.384615421295166
656.3694051528546,-0.38461539149284363
657.33232369132747,0.23076923191547394
658.29505492735188,-2.384615421295166
659.25759889803339,0.5
660.21995564046847,-0.3461538553237915
661.182125191739,-0.26923078298568726
662.14410758892154,-0.88461536169052124
663.10590286909064,-0.15384615957736969
664.067511069301,-1.423076868057251
665.02893222660714,-1.4615384340286255
665.99016637806017,-0.19230769574642181
666.95121356068557,-0.57692307233810425
667.91207381151617,0.3461538553237915
668.87274716756838,-1.9615384340286255
669.83323366584955,1.2692307233810425
670.7935333433652,0.15384615957736969
671.75364623710266,-1.192307710647583
672.71357238405108,-1.9615384340286255
673.673311821185,-0.15384615957736969
674.63286458547191,0.038461539894342422
675.59223071386987,-0.15384615957736969
676.55141024332806,-2
677.51040321079017,-0.692307710647583
678.46920965318714,0.11538461595773697
679.42782960744807,-0.57692307233810425
680.38626311048392,-0.73076921701431274
681.34451019920562,0.038461539894342422
682.30257091051317,-0.53846156597137451
683.26044528129387,1.7307692766189575
684.21813334843318,-0.96153843402862549
685.17563514880567,0.88461536169052124
686.13295071927132,1.423076868057251
687.0900800966956,-0.76923078298568726
688.04702331792032,-2.307692289352417
689.00378041978729,0.038461539894342422
689.96035143912923,0.57692307233810425
