-773.51195264083617,-0.8461538553237915
-772.26970635356884,-0.30769231915473938
-771.02770412717837,0.5
-769.785945910744,-0.076923079788684845
-768.5444316533667,-0.96153843402862549
-767.30316130416213,0.038461539894342422
-766.06213481226041,1.115384578704834
-764.821352126799,0.15384615957736969
-763.58081319693338,0.42307692766189575
-762.34051797182656,-0.46153846383094788
-761.10046640066685,-0.76923078298568726
-759.86065843263532,0.15384615957736969
-758.62109401694215,-0.73076921701431274
-757.38177310281208,0.73076921701431274
-756.14269563946254,0.5
-754.90386157614739,-0.11538461595773697
-753.66527086213136,-1.192307710647583
-752.42692344666466,2.153846263885498
-751.188819279052,0.11538461595773697
-749.95095830857281,0.807692289352417
-748.71334048454628,2.461538553237915
-747.47596575629541,2.153846263885498
-746.23883407314679,-1.2307692766189575
-745.00194538445612,0.23076923191547394
-743.76529963958274,1.7692307233810425
-742.52889678790052,1.1538461446762085
-741.29273677879792,-0.73076921701431274
-740.05681956167064,-0.88461536169052124
-738.82114508593622,-1
-737.5857133010195,-1.4615384340286255
-736.35052415635982,1.5384615659713745
-735.11557760140022,0.8461538553237915
-733.88087358561643,-1.7692307233810425
-732.64641205848784,0.038461539894342422
-731.41219296949384,1.5384615659713745
-730.17821626814293,0.30769231915473938
-728.94448190395451,0.30769231915473938
-727.71098982645526,-0.57692307233810425
-726.47773998518278,0.73076921701431274
-725.24473232970013,-1.0384615659713745
-724.01196680956673,-1.884615421295166
-722.77944337437111,-1.307692289352417
-721.5471619737018,0.96153843402862549
-720.31512255716552,-0.61538463830947876
-719.08332507438354,-0.15384615957736969
-717.85176947499167,3.576923131942749
-716.62045570861846,0.57692307233810425
-715.3893837249434,0.11538461595773697
-714.15855347362412,-0.96153843402862549
-712.92796490434375,0.076923079788684845
-711.69761796680723,-2.423076868057251
-710.46751261071586,1.423076868057251
-709.23764878579277,0.57692307233810425
-708.00802644177929,1
-706.77864552840947,-0.61538463830947876
-705.549505995461,-0.15384615957736969
-704.32060779268977,-0.3461538553237915
-703.09195086989894,-0.30769231915473938
-701.86353517687348,0.96153843402862549
-700.63536066343477,0.6538461446762085
-699.40742727940051,0.76923078298568726
-698.17973497461026,-0.3461538553237915
-696.95228369891447,-1.076923131942749
-695.72507340217453,0.5
-694.49810403426636,-1.5384615659713745
-693.27137554508408,-1
-692.04488788451818,-0.15384615957736969
-690.81864100249186,-0.73076921701431274
-689.59263484892472,-0.5
-688.3668693737618,-0.23076923191547394
-687.1413445269518,-0.5
-685.91606025846522,1.807692289352417
-684.69101651826531,-0.38461539149284363
-683.466213256359,-2.230769157409668
-682.24165042274217,-0.30769231915473938
-681.01732796742908,0.53846156597137451
-679.79324584045207,1.192307710647583
-678.5694039918435,0.11538461595773697
-677.34580237166847,-0.23076923191547394
-676.12244092999572,1.192307710647583
-674.89931961689035,-0.038461539894342422
-673.67643838245749,0.88461536169052124
-672.45379717679134,0.30769231915473938
-671.23139595001885,-0.26923078298568726
-670.00923465226333,0.76923078298568726
-668.78731323367356,0.076923079788684845
-667.56563164439831,-0.61538463830947876
-666.34418983461183,1.192307710647583
-665.122987754492,-2.115384578704834
-663.90202535423487,3.692307710647583
-662.68130258404017,-0.5
-661.46081939413307,1.192307710647583
-660.240575734746,-0.5
-659.0205715561151,-0.38461539149284363
-657.80080680850187,0
-656.58128144217881,0.92307692766189575
-655.361995407422,-0.42307692766189575
-654.14294865453667,0.8461538553237915
-652.9241411338171,-0.57692307233810425
-651.7055727955867,2.115384578704834
-650.48724359018706,0.038461539894342422
-649.26915346794885,2.038461446762085
-648.05130237924277,0.11538461595773697
-646.83369027443223,-1.3461538553237915
-645.61631710390611,-1.5384615659713745
-644.399182818046,0.6538461446762085
-643.18228736727724,0.26923078298568726
-641.96563070201046,-0.8461538553237915
-640.74921277268186,2.653846263885498
-639.53303352973853,-0.15384615957736969
-638.31709292363485,-0.76923078298568726
-637.101390904847,-0.076923079788684845
-635.88592742385481,0.807692289352417
-634.67070243115631,-1.576923131942749
-633.45571587726045,-0.30769231915473938
-632.240967712687,0.42307692766189575
-631.02645788797054,2.461538553237915
-629.81218635365985,-2.153846263885498
-628.59815306031123,1.6538461446762085
-627.38435795849182,-0.11538461595773697
-626.17080099879786,-0.57692307233810425
-624.95748213181469,-1.1538461446762085
-623.7444013081531,0.88461536169052124
-622.53155847843846,0.88461536169052124
-621.31895359330338,0.23076923191547394
-620.10658660339141,-0.076923079788684845
-618.89445745937155,-0.692307710647583
-617.68256611190191,1.2692307233810425
-616.47091251167694,0
-615.2594966093875,1.5384615659713745
-614.04831835574623,0.42307692766189575
-612.83737770146945,-1
-611.62667459729528,2.038461446762085
-610.41620899397276,0.15384615957736969
-609.20598084225821,-2.192307710647583
-607.99599009291524,0.076923079788684845
-606.7862366967438,-0.8461538553237915
-605.57672060452933,-0.96153843402862549
-604.36744176707907,0.038461539894342422
-603.15840013522575,-1.692307710647583
-601.9495956597948,-0.5
-600.74102829162985,-0.76923078298568726
-599.53269798159636,2.730769157409668
-598.32460468055979,0.53846156597137451
-597.11674833940742,-1
-595.90912890903019,-0.076923079788684845
-594.70174634034447,-0.19230769574642181
-593.49460058426666,1.5
-592.28769159173135,0.26923078298568726
-591.08101931368037,-0.8461538553237915
-589.87458370107379,-0.11538461595773697
-588.66838470488256,0.8461538553237915
-587.46242227609218,0.26923078298568726
-586.25669636569182,1.4615384340286255
-585.05120692469245,-0.26923078298568726
-583.8459539041196,-1.7307692766189575
-582.64093725499515,-0.57692307233810425
-581.43615692836647,0.73076921701431274
-580.23161287529365,-0.11538461595773697
-579.02730504684951,-0.30769231915473938
-577.82323339410868,0.30769231915473938
-576.61939786817129,1.9615384340286255
-575.41579842013743,-1.576923131942749
-574.21243500113269,1.423076868057251
-573.00930756228081,0.26923078298568726
-571.80641605473465,0.42307692766189575
-570.60376042964162,-0.19230769574642181
-569.40134063817277,0.88461536169052124
-568.19915663151369,1.2307692766189575
-566.9972083608518,-1.2307692766189575
-565.79549577739454,1.6538461446762085
-564.594018832353,2.538461446762085
-563.39277747696906,0.96153843402862549
-562.19177166247209,-1.615384578704834
-560.99100134013133,-1.076923131942749
-559.7904664612015,1.692307710647583
-558.59016697696461,-0.3461538553237915
-557.39010283871175,1.0384615659713745
-556.19027399775041,0.11538461595773697
-554.99068040538987,-0.15384615957736969
-553.79132201296306,-2.038461446762085
-552.59219877181022,-1.115384578704834
-551.39331063328973,1.0384615659713745
-550.19465754875273,-0.96153843402862549
-548.99623946958855,2.461538553237915
-547.79805634717923,-2.615384578704834
-546.60010813293411,-0.692307710647583
-545.40239477826071,-2.038461446762085
-544.20491623458474,2.192307710647583
-543.0076724533501,-1.115384578704834
-541.81066338600431,0.23076923191547394
-540.6138889840131,0.92307692766189575
-539.41734919884766,0.61538463830947876
-538.22104398199917,1.615384578704834
-537.02497328496611,-0.26923078298568726
-535.82913705926148,-0.6538461446762085
-534.63353525640559,0.26923078298568726
-533.43816782793328,-0.15384615957736969
-532.243034725403,-0.57692307233810425
-531.04813590036792,2.230769157409668
-529.85347130440277,-0.807692289352417
-528.65904088909519,-0.23076923191547394
-527.46484460603642,-0.53846156597137451
-526.27088240683952,-2.115384578704834
-525.07715424312846,-0.42307692766189575
-523.88366006653268,-0.19230769574642181
-522.69039982870345,1.423076868057251
-521.49737348129383,-0.15384615957736969
-520.30458097597693,-2.076923131942749
-519.11202226443311,-0.42307692766189575
-517.9196972983591,1.692307710647583
-516.72760602945891,0.73076921701431274
-515.53574840945657,-2.461538553237915
-514.34412439008338,0.6538461446762085
-513.15273392307427,-0.57692307233810425
-511.96157696019327,-0.5
-510.77065345320443,-2.153846263885498
-509.57996335388816,-2.038461446762085
-508.38950661403396,0.23076923191547394
-507.19928318545135,-1.884615421295166
-506.009293019948,1.5
-504.81953606935895,-2.653846263885498
-503.63001228552639,-0.92307692766189575
-502.44072162029261,0.42307692766189575
-501.25166402552895,-2
-500.06283945311225,-2.5
-498.87424785493022,-1.0384615659713745
-497.68588918288151,-0.5
-496.4977633888866,1.7307692766189575
-495.30987042485503,0.38461539149284363
-494.12221024273822,-1
-492.93478279447845,-0.38461539149284363
-491.74758803203986,0.6538461446762085
-490.5606259073993,-0.3461538553237915
-489.37389637252818,-0.61538463830947876
-488.1873993794361,-0.807692289352417
-487.00113488013267,1.3461538553237915
-485.8151028266293,0.38461539149284363
-484.62930317096834,-0.92307692766189575
-483.44373586519578,-0.30769231915473938
-482.25840086136122,-1.192307710647583
-481.07329811153795,0.3461538553237915
-479.88842756781014,-1.576923131942749
-478.70378918227289,0.076923079788684845
-477.51938290702128,-2.346153736114502
-476.33520869418317,0.42307692766189575
-475.15126649588274,0
-473.96755626426784,0.46153846383094788
-472.78407795148814,-1.2692307233810425
-471.60083150970968,-1
-470.41781689110212,0.038461539894342422
-469.23503404786607,-0.15384615957736969
-468.05248293220211,-0.57692307233810425
-466.87016349631995,-0.57692307233810425
-465.68807569244927,0.92307692766189575
-464.50621947281616,-1.2307692766189575
-463.32459478968667,-3.384615421295166
-462.14320159531053,0.15384615957736969
-460.96203984196472,-2.423076868057251
-459.78110948193535,-0.96153843402862549
-458.6004104675194,-1.7307692766189575
-457.419942751023,0.61538463830947876
-456.239706284774,-1.9615384340286255
-455.05970102109859,0.3461538553237915
-453.87992691234467,0.807692289352417
-452.70038391086928,0.5
-451.52107196904217,-4.153846263885498
-450.3419910392422,-1.807692289352417
-449.16314107386461,-0.88461536169052124
-447.98452202531189,-2.115384578704834
-446.80613384600474,-0.96153843402862549
-445.62797648836386,-0.73076921701431274
-444.45004990483903,0.8461538553237915
-443.27235404787461,-0.5
-442.09488886994041,-0.038461539894342422
-440.91765432350803,-2.384615421295166
-439.74065036106913,2.961538553237915
-438.56387693512079,-3.307692289352417
-437.38733399817647,1.576923131942749
-436.21102150276056,-2.269230842590332
-435.03493940140834,-1.1538461446762085
-433.859087646666,-1.2307692766189575
-432.6834661910907,1.0384615659713745
-431.50807498725953,-0.692307710647583
-430.33291398774963,1.5
-429.15798314515814,-2.307692289352417
-427.98328241209492,-1.615384578704834
-426.80881174117167,0.61538463830947876
-425.63457108502189,-1.5384615659713745
-424.46056039629184,0.23076923191547394
-423.28677962762958,0.57692307233810425
-422.113228731705,-1
-420.93990766119532,-0.53846156597137451
-419.76681636878857,-0.26923078298568726
-418.59395480718376,-1.423076868057251
-417.4213229290981,-0.6538461446762085
-416.24892068725239,-1.692307710647583
-415.07674803439113,0.30769231915473938
-413.90480492325514,-1.576923131942749
-412.73309130660527,-0.88461536169052124
-411.56160713721874,-1.576923131942749
-410.39035236788004,-2.769230842590332
-409.21932695137548,-0.46153846383094788
-408.04853084052229,0.3461538553237915
-406.87796398813043,-0.6538461446762085
-405.70762634704261,0.3461538553237915
-404.53751787009242,-3.461538553237915
-403.36763851014075,-0.23076923191547394
-402.19798822004668,-2.5
-401.02856695269838,-0.96153843402862549
-399.85937466097494,-0.15384615957736969
-398.69041129778452,0.6538461446762085
-397.52167681603896,-2.230769157409668
-396.353171168661,-1.692307710647583
-395.18489430858972,-2.576923131942749
-394.01684618877334,0.11538461595773697
-392.84902676217644,-3.576923131942749
-391.68143598176539,1.2692307233810425
-390.51407380052297,-1.3461538553237915
-389.3469401714483,-1.7307692766189575
-388.18003504754779,-1.7692307233810425
-387.01335838184059,-0.6538461446762085
-385.84691012736039,-1.923076868057251
-384.6806902371427,-1.076923131942749
-383.51469866424304,-1.807692289352417
-382.34893536172967,-1.5384615659713745
-381.18340028268176,1.576923131942749
-380.01809338018211,0.42307692766189575
-378.85301460734081,-0.11538461595773697
-377.68816391725704,-1.6538461446762085
-376.52354126307,-0.19230769574642181
-375.35914659789887,1.2307692766189575
-374.19497987490831,-3.384615421295166
-373.03104104724662,0.6538461446762085
-371.86733006808936,-0.26923078298568726
-370.70384689061211,-0.38461539149284363
-369.54059146801774,-0.692307710647583
-368.37756375350727,-0.96153843402862549
-367.21476370029814,-3.153846263885498
-366.05219126162228,0.076923079788684845
-364.8898463907135,-1.3461538553237915
-363.72772904083467,-0.15384615957736969
-362.56583916524323,0.23076923191547394
-361.40417671721116,-3.461538553237915
-360.24274165003226,-1.576923131942749
-359.081533917004,0.076923079788684845
-357.92055347143287,-0.692307710647583
-356.75980026664365,-3.307692289352417
-355.599274255972,-1.5
-354.43897539276259,-1.7692307233810425
-353.27890363036749,2.807692289352417
-352.11905892216055,-3.461538553237915
-350.95944122151559,-1.7692307233810425
-349.80005048183375,-2.384615421295166
-348.64088665651252,-0.5
-347.48194969896213,-0.57692307233810425
-346.32323956261644,-0.53846156597137451
-345.1647562009075,-2.192307710647583
-344.00649956729103,-1.2692307233810425
-342.84846961522635,-0.3461538553237915
-341.69066629818008,-2.192307710647583
-340.53308956964429,-2.153846263885498
-339.37573938310743,-1.7692307233810425
-338.2186156920834,-0.88461536169052124
-337.06171845008612,-0.26923078298568726
-335.90504761065313,-1.423076868057251
-334.74860312731835,-1.076923131942749
-333.59238495363388,-0.807692289352417
-332.43639304317185,0.3461538553237915
-331.28062734950618,-1.5384615659713745
-330.12508782622172,-1.692307710647583
-328.96977442692332,0.11538461595773697
-327.81468710521767,-0.88461536169052124
-326.65982581472417,1.2307692766189575
-325.50519050908952,-0.076923079788684845
-324.35078114194584,-1.2307692766189575
-323.19659766695622,-2.653846263885498
-322.042640037791,0.11538461595773697
-320.88890820812412,-1.423076868057251
-319.73540213164961,-3.884615421295166
-318.58212176207417,-1.5384615659713745
-317.42906705310816,0.30769231915473938
-316.2762379584783,1.423076868057251
-315.12363443192226,-2.807692289352417
-313.9712564271922,-2.923076868057251
-312.81910389803852,0.23076923191547394
-311.66717679824615,-1.2307692766189575
-310.51547508159092,1.307692289352417
-309.36399870186324,-1.576923131942749
-308.21274761287896,-2
-307.0617217684503,-1.115384578704834
-305.91092112241131,0.30769231915473938
-304.7603456285924,-3.115384578704834
-303.60999524085491,-2.269230842590332
-302.45986991305472,-2
-301.30996959907316,-1.2307692766189575
-300.16029425279521,-1.807692289352417
-299.01084382811496,-0.57692307233810425
-297.86161827894466,-0.11538461595773697
-296.71261755920386,-1.423076868057251
-295.563841622823,-1.0384615659713745
-294.41529042374714,-2
-293.26696391593214,-0.73076921701431274
-292.11886205333758,-0.92307692766189575
-290.97098478994849,-0.807692289352417
-289.82333207974989,-0.73076921701431274
-288.67590387674136,-1.0384615659713745
-287.52870013493884,-0.15384615957736969
-286.38172080835648,-0.73076921701431274
-285.23496585103931,-1.076923131942749
-284.08843521702511,0
-282.94212886037531,-1.307692289352417
-281.79604673515678,-1.3461538553237915
-280.65018879545278,-2.076923131942749
-279.50455499534473,1.076923131942749
-278.359145288945,-0.19230769574642181
-277.21395963036048,-0.42307692766189575
-276.06899797372535,0.11538461595773697
-274.92426027316469,0.46153846383094788
-273.77974648283453,-0.38461539149284363
-272.63545655689268,0.76923078298568726
-271.49139044950425,0
-270.34754811485618,1.4615384340286255
-269.20392950714449,-0.038461539894342422
-268.06053458056886,0.38461539149284363
-266.91736328934348,4
-265.77441558769715,1.192307710647583
-264.631691429875,-0.76923078298568726
-263.48919077011669,0.53846156597137451
-262.34691356268377,2.307692289352417
-261.20485976185773,1.615384578704834
-260.06302932191284,1.423076868057251
-258.92142219715242,0.57692307233810425
-257.78003834187439,0.92307692766189575
-256.63887771039481,0.038461539894342422
-255.49794025705341,0.807692289352417
-254.35722593618084,1.2692307233810425
-253.216734702135,0.807692289352417
-252.076466509272,2.769230842590332
-250.93642131196611,0.038461539894342422
-249.7965990646062,-0.61538463830947876
-248.65699972158654,0.92307692766189575
-247.51762323731782,1.8461538553237915
-246.37846956621252,0.61538463830947876
-245.23953866270131,-1.384615421295166
-244.1008304812367,0.038461539894342422
-242.96234497625483,1.5
-241.8240821022282,1.0384615659713745
-240.68604181363298,1.8461538553237915
-239.54822406495077,1.423076868057251
-238.41062881068319,0.57692307233810425
-237.27325600533186,-1.3461538553237915
-236.13610560342386,0.076923079788684845
-234.99917755948991,-0.6538461446762085
-233.862471828068,0.76923078298568726
-232.72598836371435,1.2307692766189575
-231.58972712099603,1.8461538553237915
-230.45368805447833,0.53846156597137451
-229.3178711187611,1.807692289352417
-228.18227626843509,2.076923131942749
-227.04690345811105,2.538461446762085
-225.91175264241065,2.269230842590332
-224.77682377596102,1.8461538553237915
-223.64211681341294,2.115384578704834
-222.507631709419,3.230769157409668
-221.37336841863544,1
-220.2393268957494,3.038461446762085
-219.10550709544077,2.115384578704834
-217.97190897241308,2.846153736114502
-216.83853248137348,0.6538461446762085
-215.70537757704551,2.269230842590332
-214.57244421415817,3.461538553237915
-213.43973234745863,2.307692289352417
-212.3072419316959,1.2307692766189575
-211.1749729216408,3.653846263885498
-210.042925272066,0.19230769574642181
-208.91109893776047,3.423076868057251
-207.77949387352419,1.384615421295166
-206.64811003416798,1.884615421295166
-205.5169473745118,2.423076868057251
-204.38600584938649,4.42307710647583
-203.25528541363383,-0.26923078298568726
-202.12478602211559,4.346153736114502
-200.99450762968627,-0.5
-199.86445019123312,1.8461538553237915
-198.73461366164156,2.653846263885498
-197.60499799580612,2.230769157409668
-196.47560314863586,1.1538461446762085
-195.34642907505804,1.615384578704834
-194.21747572999993,1.5
-193.0887430684088,3.807692289352417
-191.96023104523192,2.384615421295166
-190.83193961544202,5.57692289352417
-189.70386873401003,0.5
-188.57601835592868,4.769230842590332
-187.44838843618891,3.692307710647583
-186.32097892980892,1
-185.19378979179783,2.038461446762085
-184.06682097719931,3.692307710647583
-182.94007244104978,2.730769157409668
-181.81354413840563,3.576923131942749
-180.68723602432692,4.07692289352417
-179.56114805389007,5.269230842590332
-178.43528018218967,4.5
-177.30963236431307,6.384615421295166
-176.18420455537307,4.653846263885498
-175.05899671049156,4.730769157409668
-173.93400878479952,7.1923074722290039
-172.8092407334334,6.57692289352417
-171.68469251155148,7.153846263885498
-170.56036407431748,7.42307710647583
-169.43625537690059,7.346153736114502
-168.31236637449183,6.730769157409668
-167.18869702228221,8.5769233703613281
-166.06524727548822,7.6923074722290039
-164.94201708932451,11.230769157409668
-163.81900641901848,12.269230842590332
-162.69621521981026,12.269230842590332
-161.57364344695634,10
-160.45129105571505,12.615385055541992
-159.32915800136652,13.615385055541992
-158.20724423918546,13.461538314819336
-157.08554972447382,16.346153259277344
-155.96407441253541,15.230769157409668
-154.84281825868857,15.038461685180664
-153.72178121826437,19.615385055541992
-152.60096324659753,19.961538314819336
-151.48036429904278,22.923076629638672
-150.35998433095847,19.230770111083984
-149.23982329771206,22.884614944458008
-148.11988115469831,25
-147.0001578572992,23.730770111083984
-145.88065336092768,25.730770111083984
-144.76136762099122,28.30769157409668
-143.64230059293004,32.230770111083984
-142.5234522321698,31.346153259277344
-141.40482249415982,31
-140.28641133436759,34.115383148193359
-139.16821870825697,35.038459777832031
-138.05024457131003,35.230770111083984
-136.93248887901791,39.230770111083984
-135.81495158688631,37.461540222167969
-134.69763265042639,35.846153259277344
-133.58053202516567,42.692306518554688
-132.46364966663896,43.692306518554688
-131.34698553039198,39.307693481445313
-130.23053957198317,42.269229888916016
-129.11431174697645,41.5
-127.99830201095756,43.538459777832031
-126.8825103195104,42.538459777832031
-125.76693662824073,42.038459777832031
-124.65158089275792,43.115383148193359
-123.53644306868227,41.192306518554688
-122.42152311165228,36.192306518554688
-121.30682097731187,38.846153259277344
-120.19233662130864,34.423076629638672
-119.07806999931199,37.307693481445313
-117.96402106700589,34.961540222167969
-116.85018978006883,33.038459777832031
-115.73657609419934,31.461538314819336
-114.62317996511774,30.346153259277344
-113.51000134852802,31.346153259277344
-112.39704020017234,32.038459777832031
-111.28429647578741,29.269229888916016
-110.17177013112814,31.730770111083984
-109.05946112195488,32.576923370361328
-107.94736940404619,32.807693481445313
-106.83549493318606,32.576923370361328
-105.72383766516577,33
-104.612397555793,35.153846740722656
-103.50117456088628,36.807693481445313
-102.39016863627148,42.807693481445313
-101.27937973778899,46.769229888916016
-100.16880782129374,56.653846740722656
-99.058452842637053,61.846153259277344
-97.9483147576957,59.5
-96.838393522348269,56.346153259277344
-95.728689092489731,50.5
-94.6192014240205,45.115383148193359
-93.509930472861015,43.923076629638672
-92.400876194924422,41.038459777832031
-91.2920385461548,39.423076629638672
-90.183417482501682,40.653846740722656
-89.075012959910964,40
-87.9668249343631,44.192306518554688
-86.85885336182946,44.192306518554688
-85.751098198299587,48.115383148193359
-84.643559399773949,49.615383148193359
-83.536236922265743,51.5
-82.429130721789988,55.384616851806641
-81.322240754388986,56.423076629638672
-80.215566976095943,57.5
-79.109109342967713,60.923076629638672
-78.002867811070246,61.961540222167969
-76.896842336478585,64.192306518554688
-75.791032875273231,67.269233703613281
-74.685439383558332,70.961540222167969
-73.580061817436217,74
-72.474900133025585,74.769233703613281
-71.3699542864506,79.115386962890625
-70.265224233859044,80
-69.160709931396923,78.846153259277344
-68.05641133521749,81.038459777832031
-66.952328401503109,87.769233703613281
-65.848461086430689,91.576919555664063
-64.7448093461935,98.346153259277344
-63.641373136992115,111.42308044433594
-62.538152415045261,124.96154022216797
-61.435147136569867,139.92308044433594
-60.332357257806507,167.73077392578125
-59.229782735001208,202.46153259277344
-58.127423524405458,240.15383911132813
-57.025279582292569,273.30767822265625
-55.923350864935855,300.07693481445313
-54.821637328623183,294.69232177734375
-53.720138929656969,266.34616088867188
-52.618855624345088,228.11538696289063
-51.517787369006328,213.61538696289063
-50.41693411997403,203.46153259277344
-49.316295833586992,204.38461303710938
-48.215872466198562,211.5
-47.115663974169365,221.15383911132813
-46.015670313878218,239.65383911132813
-44.915891441702115,285.88461303710938
-43.816327314034424,343.26922607421875
-42.716977887288522,432.15383911132813
-41.617843117875964,547.923095703125
-40.518922962221041,672.5384521484375
-39.420217376760775,732.3846435546875
-38.3217263179431,651.5
-37.223449742226876,576.6153564453125
-36.125387606081858,563.30767822265625
-35.027539865983272,552.23077392578125
-33.929906478420889,485.80767822265625
-32.832487399897218,392.0384521484375
-31.735282586923859,322.38461303710938
-30.638291996019689,286.07693481445313
-29.541515583716318,277.80767822265625
-28.44495330655991,285.0384521484375
-27.348605121096625,289.30767822265625
-26.252470983896274,253.03846740722656
-25.156550851528664,203.07691955566406
-24.060844680578157,170.96153259277344
-22.965352427649123,158
-21.870074049333198,160.34616088867188
-20.775009502252942,194.23077392578125
-19.680158743038191,203.23077392578125
-18.585521728322419,158.07691955566406
-17.491098414751832,123.5
-16.396888758989007,112.46154022216797
-15.302892717698342,111.07691955566406
-14.209110247560602,109.96154022216797
-13.115541305269289,115.03845977783203
-12.022185847514265,116.5
-10.929043831019953,123.19230651855469
-9.8361152124980435,127.07691955566406
-8.7433999486820539,133.76922607421875
-7.65089799631096,138.34616088867188
-6.5586093121492013,131.5
-5.466533852946668,102.34615325927734
-4.3746715754823526,31.769229888916016
-3.2830224365425238,25.115385055541992
-2.1915863929170882,50.461540222167969
-1.1003634014141426,53.846153259277344
-0.0093534188454214018,61.653846740722656
1.0814435979573318,42.384616851806641
2.1720276921641926,7.8076925277709961
3.2623989069197705,8.15384578704834
4.35255728537777,33.538459777832031
5.4425028706609737,108.65384674072266
6.5322357058976195,135.11538696289063
7.6217558341977565,131.46153259277344
8.7110632986587,127.38461303710938
9.8001581423777679,122.5
10.889040408424989,118.69230651855469
11.977710139883129,115.11538696289063
13.06616737980039,112.96154022216797
14.154412171230433,109.46154022216797
15.242444557208728,111.23076629638672
16.330264580770745,116.73076629638672
17.417872284928308,133.07691955566406
18.50526771269142,176.30769348144531
19.592450907051898,207.03846740722656
20.679421910997917,184.46153259277344
21.766180767510377,163.15383911132813
22.852727519550172,162.42308044433594
23.939062210076372,177.57691955566406
25.025184882029862,211.92308044433594
26.111095578347886,262.9615478515625
27.196794341953137,294.30767822265625
28.28228121576285,288.19232177734375
29.367556242677892,273.57693481445313
30.452619465586395,296.0384521484375
31.537470927380127,342.5384521484375
32.622110670923576,413.92306518554688
33.706538739086682,500.9615478515625
34.790755174713922,555.923095703125
35.874760020649774,561.15386962890625
36.95855331972416,584.26922607421875
38.04213511476155,666.73077392578125
39.125505448568219,721.5
40.208664363943171,655.076904296875
41.291611903676312,530.73077392578125
42.37434811055391,415.07693481445313
43.45687302733495,339.15383911132813
44.539186696785691,277.30767822265625
45.621289161648747,245.11538696289063
46.703180464664911,220.61538696289063
47.784860648560425,211.07691955566406
48.866329756052437,204.65383911132813
49.947587829856275,209.42308044433594
51.028634912656344,217.65383911132813
52.109471047146144,240.69230651855469
53.190096275999167,270.69232177734375
54.270510641885267,300.69232177734375
55.350714187454287,312.73077392578125
56.430706955356072,290.30767822265625
57.5104889882241,250.34616088867188
58.590060328684558,214.69230651855469
59.669421019347283,177.80769348144531
60.7485711028221,155.30769348144531
61.82751062170064,132.84616088867188
62.906239618561813,120.46154022216797
63.984758135989978,105.92308044433594
65.063066216536754,95.384613037109375
66.141163902764674,92.538459777832031
67.219051237207168,86.538459777832031
68.29672826240494,84.615386962890625
69.374195020876869,83.692306518554688
70.4514515551291,83.076919555664063
71.528497907673227,82.615386962890625
72.605334120997213,78.884613037109375
73.681960237579915,74.230766296386719
74.758376299892916,73.730766296386719
75.8345823503987,73.230766296386719
76.910578431545218,68
77.986364585774936,66.653846740722656
79.061940855521243,62.692306518554688
80.137307283193877,60.653846740722656
81.212463911211671,60.346153259277344
82.28741078197163,56.807693481445313
83.362147937861664,55.269229888916016
84.436675421262407,54.846153259277344
85.51099327454358,52.115383148193359
86.58510154006035,52.730770111083984
87.659000260162429,47.346153259277344
88.7326894771868,46.230770111083984
89.80616923346679,45.846153259277344
90.879439571315743,46.423076629638672
91.952500533045168,45.346153259277344
93.025352160946568,47.576923370361328
94.097994497313266,54.192306518554688
95.170427584422214,60.384616851806641
96.242651464532173,67.346153259277344
97.314666179911,72.384613037109375
98.386471772804725,71.923080444335938
99.458068285441186,66.576919555664063
100.52945576005368,57.961540222167969
101.60063423885185,50.538459777832031
102.67160376405081,45.692306518554688
103.74236437784384,42.692306518554688
104.81291612240966,40.384616851806641
105.88325903993427,39.846153259277344
106.95339317257822,38.115383148193359
108.02331856250021,37.076923370361328
109.09303525183896,37.730770111083984
110.16254328273681,37.307693481445313
111.23184269731064,39.153846740722656
112.30093353768643,35.846153259277344
113.36981584596106,38.692306518554688
114.43848966423138,39.730770111083984
115.50695503458155,39.115383148193359
116.57521199908842,42.153846740722656
117.64326059981613,41.846153259277344
118.71110087881789,46.807693481445313
119.77873287813418,47.923076629638672
120.8461566398073,49.038459777832031
121.91337220585774,51
122.98037961829687,51.153846740722656
124.04717891912696,55.884616851806641
125.11377015035214,55.5
126.18015335394557,56.076923370361328
127.24632857188772,57.269229888916016
128.31229584614084,56.384616851806641
129.37805521865448,57.653846740722656
130.44360673138181,57.230770111083984
131.50895042624506,54.423076629638672
132.57408634517378,56.961540222167969
133.63901453007747,54.230770111083984
134.70373502286202,54.576923370361328
135.76824786542602,51.615383148193359
136.83255309964807,49.192306518554688
137.89665076739402,51.192306518554688
138.96054091054066,49.461540222167969
140.024223570932,49.269229888916016
141.08769879041392,43.692306518554688
142.1509666108177,42.769229888916016
143.214027073971,41
144.27688022168513,41.153846740722656
145.33952609575863,39
146.40196473799006,39.807693481445313
147.46419619015978,35.115383148193359
148.52622049404272,31.846153259277344
149.58803769140104,32.961540222167969
150.64964782398602,31.076923370361328
151.71105093354345,29.730770111083984
152.77224706180459,30.423076629638672
153.83323625049343,24.346153259277344
154.89401854132302,23.69230842590332
155.95459397599734,23.230770111083984
157.01496259620762,24.153846740722656
158.07512444363783,21.346153259277344
159.13507955996283,21.076923370361328
160.19482798684112,20.69230842590332
161.25436976592937,17.423076629638672
162.31370493887334,17.80769157409668
163.37283354730243,15.769230842590332
164.4317556328424,18
165.49047123710079,16.80769157409668
166.54898040169246,14.576923370361328
167.60728316820132,13.423076629638672
168.66537957821311,13.269230842590332
169.72326967330264,11.038461685180664
170.780953495032,12.730769157409668
171.83843108495967,10.923076629638672
172.89570248462041,12.884614944458008
173.95276773555634,10.730769157409668
175.00962687929132,9.1153850555419922
176.06627995733652,10.076923370361328
177.12272701119764,9.3076925277709961
178.178968082364,9.9615383148193359
179.23500321232495,10.730769157409668
180.2908324425498,8.269230842590332
181.34645581451332,10.692307472229004
182.40187336966119,9.6153850555419922
183.45708514943908,6.4615383148193359
184.51209119528539,8.4615383148193359
185.56689154862397,4.07692289352417
186.62148625086775,7.846153736114502
187.67587534342056,5.230769157409668
188.7300588676826,6.653846263885498
189.78403686503225,5.884615421295166
190.83780937685697,6.769230842590332
191.89137644451148,5.269230842590332
192.94473810935415,5.5384616851806641
193.9978944127306,5.115384578704834
195.050845395981,5.6923074722290039
196.10359110042373,4.57692289352417
197.15613156738254,3.884615421295166
198.20846683816126,1.6538461446762085
199.26059695405638,5.115384578704834
200.31252195635352,2.846153736114502
201.36424188632918,4.769230842590332
202.4157567852526,5.615384578704834
203.4670666943839,1.8461538553237915
204.51817165496323,5.92307710647583
205.56907170823069,4.1923074722290039
206.61976689541734,4.9615383148193359
207.670257257736,4
208.72054283640318,4.0384616851806641
209.77062367260442,6.3076925277709961
210.820499807538,4.230769157409668
211.8701712823804,4.730769157409668
212.91963813829716,5.9615383148193359
213.96890041645383,3.961538553237915
215.01795815799051,5.3076925277709961
216.06681140405453,6.346153736114502
217.11546019577327,4.769230842590332
218.16390457426678,5
219.2121445806406,7.6923074722290039
220.26018025599478,7.153846263885498
221.30801164143122,5.07692289352417
222.35563877801724,5.615384578704834
223.40306170683289,4.230769157409668
224.45028046893094,4.0384616851806641
225.49729510536963,3.307692289352417
226.54410565718536,4.346153736114502
227.59071216541633,4.6923074722290039
228.6371146710826,2.730769157409668
229.68331321518963,5.346153736114502
230.72930783874654,1.2692307233810425
231.77509858274425,5.57692289352417
232.82068548816642,2.230769157409668
233.86606859598396,2.230769157409668
234.91124794716416,2.423076868057251
235.95622358265609,1.7692307233810425
237.00099554340886,1.807692289352417
238.04556387035336,2.884615421295166
239.08992860441322,1.423076868057251
240.13408978650659,1.384615421295166
241.1780474575371,2.384615421295166
242.22180165840109,0.46153846383094788
243.26535242998034,3.923076868057251
244.30869981315118,1.4615384340286255
245.35184384878812,2.576923131942749
246.39478457773839,1.5384615659713745
247.43752204085104,1.6538461446762085
248.48005627896237,0.88461536169052124
249.52238733290687,2.576923131942749
250.56451524348995,2.615384578704834
251.60644005152972,3.807692289352417
252.64816179782065,2.076923131942749
253.68968052315358,3.576923131942749
254.730996268303,5.5
255.77210907403787,4.269230842590332
256.81301898112542,5.384615421295166
257.85372603030919,3.423076868057251
258.89423026233089,0.76923078298568726
259.93453171791953,5.615384578704834
260.9746304377968,5.846153736114502
262.01452646267171,1.8461538553237915
263.05421983325323,1.3461538553237915
264.09371059022669,2.923076868057251
265.13299877427562,3.423076868057251
266.1720844260708,3.884615421295166
267.21096758627755,2.576923131942749
268.24964829555029,2.730769157409668
269.2881265945307,2.038461446762085
270.32640252385318,2.846153736114502
271.3644761241394,-0.42307692766189575
272.40234743601104,2.153846263885498
273.44001650006248,2.346153736114502
274.47748335689721,1.423076868057251
275.51474804710051,2.269230842590332
276.55181061124858,1.4615384340286255
277.58867108990307,2.076923131942749
278.6253295236238,-0.23076923191547394
279.66178595296151,0.11538461595773697
280.69804041844691,1
281.73409296061618,1.076923131942749
282.76994361998004,-2.423076868057251
283.805592437051,2.615384578704834
284.84103945233073,0.26923078298568726
285.87628470630625,0.3461538553237915
286.91132823945736,-0.23076923191547394
287.94617009225294,-0.76923078298568726
288.98081030516005,-0.3461538553237915
290.01524891862209,1
291.04948597308794,-0.73076921701431274
292.08352150898645,1.5
293.11735556673921,0.23076923191547394
294.1509881867587,1.076923131942749
295.18441940945377,-0.692307710647583
296.21764927521144,2.423076868057251
297.25067782442056,-1.076923131942749
298.2835050974536,0.38461539149284363
299.31613113467938,-1.7307692766189575
300.34855597644855,-0.57692307233810425
301.38077966311357,-1.884615421295166
302.41280223500326,-2.153846263885498
303.44462373245005,-0.076923079788684845
304.47624419576641,-0.92307692766189575
305.50766366526477,-3.192307710647583
306.53888218124666,-1.423076868057251
307.56989978399361,-1.2307692766189575
308.60071651379076,1.307692289352417
309.63133241090145,-0.30769231915473938
310.66174751559265,-0.96153843402862549
311.69196186811314,-0.26923078298568726
312.72197550869896,-0.76923078298568726
313.7517884775898,-2.269230842590332
314.78140081500351,-3.884615421295166
315.81081256115249,1.9615384340286255
316.84002375624368,-2.461538553237915
317.86903444046584,-1.7307692766189575
318.89784465400771,-3.615384578704834
319.92645443703987,-0.692307710647583
320.95486382973104,-3.884615421295166
321.98307287223361,-0.11538461595773697
323.01108160469812,-1.307692289352417
324.03889006725694,-4.92307710647583
325.06649830004426,1.192307710647583
326.09390634316696,-1.8461538553237915
327.12111423674287,-0.73076921701431274
328.14812202086614,-0.038461539894342422
329.1749297356273,-2.615384578704834
330.20153742110597,-3.461538553237915
331.22794511737266,-1.884615421295166
332.25415286449424,-1.1538461446762085
333.28016070251033,-2.807692289352417
334.30596867147324,-2.230769157409668
335.33157681140983,-3.653846263885498
336.356985162347,-2.153846263885498
337.38219376429515,-1.5
338.40720265726304,-1.192307710647583
339.4320118812393,-1.192307710647583
340.45662147621442,-0.53846156597137451
341.48103148216251,-1.9615384340286255
342.50524193905039,-1.2307692766189575
343.52925288683764,-2.038461446762085
344.55306436546562,0.23076923191547394
345.57667641487933,-2.730769157409668
346.60008907500196,-2.5
347.62330238575669,0.807692289352417
348.6463163870576,-3.346153736114502
349.66913111879694,-0.76923078298568726
350.691746620867,-2.230769157409668
351.71416293315815,-0.692307710647583
352.73638009553179,-1.4615384340286255
353.75839814785832,-0.76923078298568726
354.78021712998816,-2.038461446762085
355.80183708176628,-3
356.82325804302855,-0.8461538553237915
357.84448005359627,-2.346153736114502
358.86550315329259,-0.46153846383094788
359.88632738192064,-1.807692289352417
360.90695277927625,-3.076923131942749
361.9273793851462,-0.38461539149284363
362.94760723931722,-2.346153736114502
363.9676363815488,-3.115384578704834
364.98746685160586,-1.7307692766189575
366.00709868923332,-3.076923131942749
367.02653193418337,-1.8461538553237915
368.0457666261791,-1.7692307233810425
369.06480280494725,-1.9615384340286255
370.08364051019453,-0.3461538553237915
371.10227978162948,-0.23076923191547394
372.12072065894608,-4.115384578704834
373.13896318183288,-3.192307710647583
374.15700738995474,-0.46153846383094788
375.17485332298929,-1.4615384340286255
376.1925010205905,-4.3076925277709961
377.20995052240505,-0.30769231915473938
378.22720186806691,-1
379.24425509721186,-0.038461539894342422
380.26111024945749,-2.230769157409668
381.27776736441228,-2.269230842590332
382.29422648167929,-1.3461538553237915
383.31048764085062,-0.73076921701431274
384.3265508815075,0.692307710647583
385.34241624322385,-2.692307710647583
386.35808376556452,-2.115384578704834
387.37355348807978,-1.192307710647583
388.38882545031993,-1.5
389.40389969181524,-0.88461536169052124
390.41877625210145,-0.3461538553237915
391.433455170687,-4.115384578704834
392.447936487084,-1.2307692766189575
393.46222024079,-2.692307710647583
394.476306471297,-1.5384615659713745
395.49019521808259,-1
396.50388652061883,-2.423076868057251
397.51738041836506,-0.88461536169052124
398.530676950777,-2.692307710647583
399.54377615729936,-1.8461538553237915
400.55667807736063,0.23076923191547394
401.5693827503892,-1.6538461446762085
402.5818902157971,-3.192307710647583
403.59420051299639,1.423076868057251
404.60631368137911,-0.57692307233810425
405.61822976033545,-1.615384578704834
406.62994878923928,-2.076923131942749
407.64147080746443,-1.3461538553237915
408.6527958543702,-0.23076923191547394
409.66392396930314,-0.30769231915473938
410.67485519161164,0.92307692766189575
411.68558956062407,-1.423076868057251
412.69612711565969,-0.96153843402862549
413.70646789603961,-1.884615421295166
414.71661194106127,-1.1538461446762085
415.72655929002758,-0.57692307233810425
416.73630998222143,-1.0384615659713745
417.745864056913,-0.88461536169052124
418.75522155338149,-1.5
419.76438251087711,-2.461538553237915
420.77334696865182,-1.423076868057251
421.78211496594486,-1.8461538553237915
422.79068654198818,-1.9615384340286255
423.79906173600284,-1.6538461446762085
424.80724058720261,-3.153846263885498
425.81522313478672,-1.6538461446762085
426.82300941795256,-1.5
427.83059947589027,-2.461538553237915
428.8379933477645,0.30769231915473938
429.84519107274537,-0.038461539894342422
430.85219268999572,-1.9615384340286255
431.85899823866021,-2.730769157409668
432.86560775787439,-1.1538461446762085
433.87202128677382,-2.846153736114502
434.8782388644795,-0.692307710647583
435.88426053009243,-2.115384578704834
436.89008632272635,-0.88461536169052124
437.89571628147496,-3.423076868057251
438.9011504454138,-1.115384578704834
439.90638885362387,-3.615384578704834
440.91143154516431,-3.115384578704834
441.91627855910519,-1.884615421295166
442.92092993447841,-2.230769157409668
443.92538571033219,-2.807692289352417
444.92964592569297,-0.6538461446762085
445.93371061957805,-3.038461446762085
446.93757983100477,-1.4615384340286255
447.94125359896861,-0.76923078298568726
448.94473196246508,-0.6538461446762085
449.94801496047694,-1.5
450.95110263197967,-0.6538461446762085
451.953995015936,-2.307692289352417
452.95669215130511,-3.961538553237915
453.95919407703332,-1.7692307233810425
454.96150083205976,-3.461538553237915
455.96361245530716,-0.23076923191547394
456.96552898570553,-0.38461539149284363
457.96725046215579,-0.57692307233810425
458.96877692356611,-1.2307692766189575
459.97010840882649,-1.1538461446762085
460.971244956816,-3.076923131942749
461.972186606421,-1.807692289352417
462.97293339649332,-2
463.97348536589743,-0.038461539894342422
464.97384255347788,-0.807692289352417
465.97400499807009,-1.5
466.97397273850584,-2.307692289352417
467.97374581360418,-1.5384615659713745
468.97332426217872,-1.2692307233810425
469.9727081230285,-2.153846263885498
470.97189743494346,-2.192307710647583
471.97089223671173,-1.5
472.96969256710508,-1.7307692766189575
473.96829846489163,-2.307692289352417
474.96670996882312,1.115384578704834
475.96492711765313,-1.923076868057251
476.96294995011704,0.076923079788684845
477.96077850494112,-5.8076925277709961
478.958412820848,1.807692289352417
479.95585293654949,-2.461538553237915
480.95309889074997,2
481.95015072213755,-3.115384578704834
482.94700846940214,0.5
483.94367217121362,1.2307692766189575
484.94014186624008,-1.923076868057251
485.93641759313687,0.53846156597137451
486.93249939055568,-0.8461538553237915
487.92838729713003,-2.076923131942749
488.92408135149708,-2.423076868057251
489.91958159227397,-0.038461539894342422
490.91488805807057,-0.46153846383094788
491.9100007874913,-1.807692289352417
492.90491981913328,-1.307692289352417
493.89964519157547,-1.884615421295166
494.89417694339863,-1.7692307233810425
495.88851511317262,-2.923076868057251
496.88265973944726,0.19230769574642181
497.87661086077605,-4.384615421295166
498.87036851569792,-0.73076921701431274
499.86393274274451,-0.5
500.8573035804402,-1.115384578704834
501.85048106729482,-1
502.84346524181092,-0.46153846383094788
503.83625614248922,-2.615384578704834
504.82885380781045,-2.576923131942749
505.82125827625532,-0.46153846383094788
506.81346958628819,-0.42307692766189575
507.80548777637341,-0.73076921701431274
508.79731288496077,-3.538461446762085
509.78894495048735,-1.7307692766189575
510.7803840113902,-0.5
511.77163010608638,-1
512.7626832729984,-2.769230842590332
513.753543550527,-0.96153843402862549
514.74421097707091,-0.88461536169052124
515.73468559101457,-2.923076868057251
516.72496743074043,-0.96153843402862549
517.71505653461827,-1.5
518.7049529410051,-2.923076868057251
519.69465668825978,-1.9615384340286255
520.68416781471751,-2.769230842590332
521.67348635871713,-1.076923131942749
522.6626123585811,-1.7307692766189575
523.6515458526319,-1.2307692766189575
524.64028687916834,-0.38461539149284363
525.62883547649471,-1.1538461446762085
526.61719168289892,0.57692307233810425
527.60535553665977,-2.961538553237915
528.59332707605427,-1
529.58110633933939,-0.11538461595773697
530.5686933647703,-2
531.55608819059671,-1.3461538553237915
532.543290855052,-2.692307710647583
533.53030139635848,-1.076923131942749
534.517119852746,-0.807692289352417
535.50374626241319,-1.0384615659713745
536.49018066356621,-0.46153846383094788
537.47642309439289,-0.038461539894342422
538.46247359308109,-2.423076868057251
539.44833219780412,-1.884615421295166
540.43399894672075,-2.461538553237915
541.419473877997,-1.692307710647583
542.40475702977346,-2.923076868057251
543.38984844019069,-0.88461536169052124
544.37474814737834,-2.307692289352417
545.35945618945516,-0.76923078298568726
546.3439726045417,-0.8461538553237915
547.32829743073307,-2.5
548.31243070612072,-2.307692289352417
549.29637246879975,-1.576923131942749
550.28012275683977,-1.6538461446762085
551.26368160831407,-1.384615421295166
552.24704906127408,0.26923078298568726
553.23022515377488,-2.384615421295166
554.21320992386063,-2.730769157409668
555.19600340955367,0.57692307233810425
556.1786056488927,-1.615384578704834
557.16101667987823,-1.8461538553237915
558.14323654052532,-2
559.12526526882721,0.5
560.10710290277348,-2.307692289352417
561.088749480341,-3.423076868057251
562.07020503950662,-0.76923078298568726
563.0514696182272,0.42307692766189575
564.03254325445778,-3.269230842590332
565.01342598614065,-1.076923131942749
565.99411785121265,-2.307692289352417
566.97461888760517,-1.192307710647583
567.9549291332296,-2.769230842590332
568.93504862599912,0.15384615957736969
569.91497740381055,0.46153846383094788
570.89471550455892,-1.807692289352417
571.8742629661283,-1.4615384340286255
572.85361982638642,0.692307710647583
573.83278612320282,-1.7692307233810425
574.81176189443613,-2.346153736114502
575.79054717792678,0.038461539894342422
576.76914201152067,0.19230769574642181
577.747546433051,-2.423076868057251
578.72576048033079,-0.8461538553237915
579.70378419117333,0
580.6816176033899,-2.076923131942749
581.65926075476636,-0.96153843402862549
582.63671368309952,-0.38461539149284363
583.613976426157,-3.346153736114502
584.59104902171384,-0.53846156597137451
585.56793150752856,-1.2692307233810425
586.54462392135247,-0.53846156597137451
587.52112630092961,1.615384578704834
588.49743868399491,-2.192307710647583
589.473561108267,-1.1538461446762085
590.44949361146973,-3.653846263885498
591.42523623130546,-0.26923078298568726
592.40078900547815,-2.038461446762085
593.37615197168088,-2.115384578704834
594.35132516758313,-1.615384578704834
595.32630863086888,-0.807692289352417
596.30110239920032,-0.38461539149284363
597.27570651022688,-1.5
598.25012100160166,0.38461539149284363
599.22434591095953,-4.653846263885498
600.19838127593539,-0.46153846383094788
601.17222713414048,-1.576923131942749
602.145883523197,-1
603.11935048069972,0.3461538553237915
604.09262804424907,-0.5
605.06571625142715,-0.53846156597137451
606.03861513981246,-2.076923131942749
607.01132474697624,-2.346153736114502
607.98384511047152,-0.53846156597137451
608.95617626785679,-0.46153846383094788
609.92831825667054,-1.576923131942749
610.90027111445124,-0.73076921701431274
611.87203487871375,-0.88461536169052124
612.84360958698562,-2.923076868057251
613.81499527677443,-0.692307710647583
614.78619198556953,-2.076923131942749
615.75719975086758,-0.92307692766189575
616.7280186101525,-1.115384578704834
617.69864860089183,-0.42307692766189575
618.66908976055493,-1.692307710647583
619.63934212659842,-0.96153843402862549
620.60940573646621,0.46153846383094788
621.57928062759311,-0.76923078298568726
622.54896683741936,-0.19230769574642181
623.51846440335976,-2.307692289352417
624.48777336282728,-1.1538461446762085
625.45689375322763,-2.346153736114502
626.42582561195377,-1.8461538553237915
627.394568976395,-0.46153846383094788
628.363123883928,-1.8461538553237915
629.331490371922,-2.461538553237915
630.299668477739,-0.807692289352417
631.26765823873393,1.7692307233810425
632.23545969224324,-2.153846263885498
633.20307287561081,-2.423076868057251
634.170497826155,-1.076923131942749
635.137734581198,-0.73076921701431274
636.10478317805246,1.807692289352417
637.0716436540115,-0.76923078298568726
638.03831604637162,-0.57692307233810425
639.004800392413,0.3461538553237915
639.97109672941588,-1.8461538553237915
640.9372050946422,-0.38461539149284363
641.90312552535215,-1.5
642.86885805879137,-0.57692307233810425
643.83440273220367,0
644.79975958282012,-1.807692289352417
645.76492864786451,-2.5
646.72990996454973,0.88461536169052124
647.69470357008322,-1.307692289352417
648.6593095016633,-0.11538461595773697
649.6237277964774,-1.1538461446762085
650.58795849170929,-1.2307692766189575
651.5520016245282,-1.0384615659713745
652.51585723209973,-1.5384615659713745
653.4795253515731,-0.692307710647583
654.44300602009935,0.23076923191547394
655.406299274815,-1.384615421295166
656.3694051528546,1.7692307233810425
657.33232369132747,-0.807692289352417
658.29505492735188,0.57692307233810425
659.25759889803339,-0.30769231915473938
660.21995564046847,-0.692307710647583
661.182125191739,-0.38461539149284363
662.14410758892154,-1.576923131942749
663.10590286909064,-0.8461538553237915
664.067511069301,-2.115384578704834
665.02893222660714,-1.2307692766189575
665.99016637806017,-0.23076923191547394
666.95121356068557,-1.8461538553237915
667.91207381151617,-1.884615421295166
668.87274716756838,-2.230769157409668
669.83323366584955,0.076923079788684845
670.7935333433652,-0.3461538553237915
671.75364623710266,-2.346153736114502
672.71357238405108,0.92307692766189575
673.673311821185,-1.423076868057251
674.63286458547191,-1.076923131942749
675.59223071386987,0.8461538553237915
676.55141024332806,-3.384615421295166
677.51040321079017,-0.53846156597137451
678.46920965318714,-2.038461446762085
679.42782960744807,-0.53846156597137451
680.38626311048392,0.807692289352417
681.34451019920562,-1.307692289352417
682.30257091051317,-1.307692289352417
683.26044528129387,-0.5
684.21813334843318,0.807692289352417
685.17563514880567,-1.423076868057251
686.13295071927132,-0.42307692766189575
687.0900800966956,-1.3461538553237915
688.04702331792032,-1.423076868057251
689.00378041978729,1.2307692766189575
689.96035143912923,-2.769230842590332
