-773.51195264083617,1.8518518209457397
-772.26970635356884,1.4814814329147339
-771.02770412717837,0.51851850748062134
-769.785945910744,0.18518517911434174
-768.5444316533667,0.62962961196899414
-767.30316130416213,1.9629629850387573
-766.06213481226041,2
-764.821352126799,1.1111111640930176
-763.58081319693338,0.48148149251937866
-762.34051797182656,2.5925924777984619
-761.10046640066685,0.18518517911434174
-759.86065843263532,2.7777776718139648
-758.62109401694215,1
-757.38177310281208,1.703703761100769
-756.14269563946254,1.7777777910232544
-754.90386157614739,-0.29629629850387573
-753.66527086213136,-0.2222222238779068
-752.42692344666466,1.6296296119689941
-751.188819279052,-0.55555558204650879
-749.95095830857281,1.2592592239379883
-748.71334048454628,1.3333333730697632
-747.47596575629541,2.4444444179534912
-746.23883407314679,0.66666668653488159
-745.00194538445612,3.0370371341705322
-743.76529963958274,2.6666667461395264
-742.52889678790052,1.296296238899231
-741.29273677879792,1.9629629850387573
-740.05681956167064,1.1111111640930176
-738.82114508593622,1.1481481790542603
-737.5857133010195,1.703703761100769
-736.35052415635982,3.0370371341705322
-735.11557760140022,3.1481480598449707
-733.88087358561643,2.1851851940155029
-732.64641205848784,2.1481480598449707
-731.41219296949384,-0.62962961196899414
-730.17821626814293,0.037037037312984467
-728.94448190395451,1.1481481790542603
-727.71098982645526,3.1851851940155029
-726.47773998518278,0.96296298503875732
-725.24473232970013,0.48148149251937866
-724.01196680956673,2
-722.77944337437111,-0.40740740299224854
-721.5471619737018,1
-720.31512255716552,1.7777777910232544
-719.08332507438354,1.2222222089767456
-717.85176947499167,1.6296296119689941
-716.62045570861846,3
-715.3893837249434,2.9629628658294678
-714.15855347362412,3.5185184478759766
-712.92796490434375,0
-711.69761796680723,1.0370370149612427
-710.46751261071586,1.8518518209457397
-709.23764878579277,0.85185188055038452
-708.00802644177929,0.4444444477558136
-706.77864552840947,1.8518518209457397
-705.549505995461,2.0370371341705322
-704.32060779268977,1.9629629850387573
-703.09195086989894,2.5185184478759766
-701.86353517687348,1.296296238899231
-700.63536066343477,1.7777777910232544
-699.40742727940051,2.4814815521240234
-698.17973497461026,2.5185184478759766
-696.95228369891447,0.51851850748062134
-695.72507340217453,2.1851851940155029
-694.49810403426636,0.48148149251937866
-693.27137554508408,0.18518517911434174
-692.04488788451818,2.0740740299224854
-690.81864100249186,-0.25925925374031067
-689.59263484892472,0.074074074625968933
-688.3668693737618,2.2962963581085205
-687.1413445269518,0.96296298503875732
-685.91606025846522,1.3703703880310059
-684.69101651826531,2.5555555820465088
-683.466213256359,-1.3333333730697632
-682.24165042274217,2.5925924777984619
-681.01732796742908,2.5555555820465088
-679.79324584045207,1.8888888359069824
-678.5694039918435,0.70370370149612427
-677.34580237166847,3.4444444179534912
-676.12244092999572,1.1481481790542603
-674.89931961689035,0.85185188055038452
-673.67643838245749,2.8888888359069824
-672.45379717679134,-0.66666668653488159
-671.23139595001885,4.8518519401550293
-670.00923465226333,0.074074074625968933
-668.78731323367356,1.6666666269302368
-667.56563164439831,3.4444444179534912
-666.34418983461183,0.25925925374031067
-665.122987754492,0.66666668653488159
-663.90202535423487,2.8518519401550293
-662.68130258404017,2.4074075222015381
-661.46081939413307,0.3333333432674408
-660.240575734746,-0.18518517911434174
-659.0205715561151,3.4444444179534912
-657.80080680850187,-0.40740740299224854
-656.58128144217881,1.2592592239379883
-655.361995407422,1.3703703880310059
-654.14294865453667,0.037037037312984467
-652.9241411338171,0.81481480598449707
-651.7055727955867,2.6296296119689941
-650.48724359018706,2.0370371341705322
-649.26915346794885,2.1111111640930176
-648.05130237924277,1.8148148059844971
-646.83369027443223,1.9259259700775146
-645.61631710390611,0.85185188055038452
-644.399182818046,0.66666668653488159
-643.18228736727724,0.55555558204650879
-641.96563070201046,2.2222223281860352
-640.74921277268186,2.6296296119689941
-639.53303352973853,1.3703703880310059
-638.31709292363485,2.0370371341705322
-637.101390904847,2.1481480598449707
-635.88592742385481,1
-634.67070243115631,0.2222222238779068
-633.45571587726045,2.1481480598449707
-632.240967712687,0.74074071645736694
-631.02645788797054,3.2592592239379883
-629.81218635365985,2.2962963581085205
-628.59815306031123,0.81481480598449707
-627.38435795849182,1.7407407760620117
-626.17080099879786,1.5185185670852661
-624.95748213181469,1.0370370149612427
-623.7444013081531,0.62962961196899414
-622.53155847843846,2
-621.31895359330338,3.1851851940155029
-620.10658660339141,2.4074075222015381
-618.89445745937155,1.1111111640930176
-617.68256611190191,2.9259259700775146
-616.47091251167694,0.1111111119389534
-615.2594966093875,2.6666667461395264
-614.04831835574623,1.0370370149612427
-612.83737770146945,1.4444444179534912
-611.62667459729528,2.4074075222015381
-610.41620899397276,2.5555555820465088
-609.20598084225821,0.074074074625968933
-607.99599009291524,2.8888888359069824
-606.7862366967438,1.4074074029922485
-605.57672060452933,-0.37037035822868347
-604.36744176707907,1.4074074029922485
-603.15840013522575,0.18518517911434174
-601.9495956597948,1.6296296119689941
-600.74102829162985,2.7407407760620117
-599.53269798159636,0.25925925374031067
-598.32460468055979,-0.92592591047286987
-597.11674833940742,3.5185184478759766
-595.90912890903019,1.7777777910232544
-594.70174634034447,0.96296298503875732
-593.49460058426666,3.7777776718139648
-592.28769159173135,2.5555555820465088
-591.08101931368037,2.1851851940155029
-589.87458370107379,3.1851851940155029
-588.66838470488256,0.51851850748062134
-587.46242227609218,0.74074071645736694
-586.25669636569182,1.4074074029922485
-585.05120692469245,0.48148149251937866
-583.8459539041196,-0.2222222238779068
-582.64093725499515,2.5185184478759766
-581.43615692836647,4.8518519401550293
-580.23161287529365,0.37037035822868347
-579.02730504684951,2.9629628658294678
-577.82323339410868,3.7037036418914795
-576.61939786817129,1.1851851940155029
-575.41579842013743,1.1481481790542603
-574.21243500113269,2.7777776718139648
-573.00930756228081,3.8888888359069824
-571.80641605473465,5.2592592239379883
-570.60376042964162,3.2592592239379883
-569.40134063817277,0.81481480598449707
-568.19915663151369,1.6296296119689941
-566.9972083608518,2.0370371341705322
-565.79549577739454,0.70370370149612427
-564.594018832353,2.0740740299224854
-563.39277747696906,1.5925925970077515
-562.19177166247209,1.8148148059844971
-560.99100134013133,1.5185185670852661
-559.7904664612015,0.48148149251937866
-558.59016697696461,0.62962961196899414
-557.39010283871175,2.8888888359069824
-556.19027399775041,1.7407407760620117
-554.99068040538987,2.5925924777984619
-553.79132201296306,1.2222222089767456
-552.59219877181022,5.1851849555969238
-551.39331063328973,2.5185184478759766
-550.19465754875273,2.5555555820465088
-548.99623946958855,3.8518519401550293
-547.79805634717923,1
-546.60010813293411,0.18518517911434174
-545.40239477826071,4.6666665077209473
-544.20491623458474,-0.70370370149612427
-543.0076724533501,1.703703761100769
-541.81066338600431,3
-540.6138889840131,0.92592591047286987
-539.41734919884766,2.8148148059844971
-538.22104398199917,-0.8888888955116272
-537.02497328496611,0.62962961196899414
-535.82913705926148,0.48148149251937866
-534.63353525640559,1.4444444179534912
-533.43816782793328,2.5925924777984619
-532.243034725403,3
-531.04813590036792,2.9629628658294678
-529.85347130440277,-0.1111111119389534
-528.65904088909519,1.5925925970077515
-527.46484460603642,3.0740740299224854
-526.27088240683952,2.9629628658294678
-525.07715424312846,1.1481481790542603
-523.88366006653268,1.8148148059844971
-522.69039982870345,2.5555555820465088
-521.49737348129383,-0.85185188055038452
-520.30458097597693,2.2962963581085205
-519.11202226443311,1.8148148059844971
-517.9196972983591,1.3703703880310059
-516.72760602945891,3.0740740299224854
-515.53574840945657,-0.59259259700775146
-514.34412439008338,0.62962961196899414
-513.15273392307427,2.3333332538604736
-511.96157696019327,-0.037037037312984467
-510.77065345320443,4.1111111640930176
-509.57996335388816,1.5555555820465088
-508.38950661403396,2.6666667461395264
-507.19928318545135,1.0740740299224854
-506.009293019948,2.5925924777984619
-504.81953606935895,-0.74074071645736694
-503.63001228552639,1
-502.44072162029261,1.3703703880310059
-501.25166402552895,4.1111111640930176
-500.06283945311225,2.7037036418914795
-498.87424785493022,2.7037036418914795
-497.68588918288151,2.9259259700775146
-496.4977633888866,3.6666667461395264
-495.30987042485503,1.3333333730697632
-494.12221024273822,4.1111111640930176
-492.93478279447845,3.4074075222015381
-491.74758803203986,0.59259259700775146
-490.5606259073993,2.6296296119689941
-489.37389637252818,1.5185185670852661
-488.1873993794361,3.6666667461395264
-487.00113488013267,2.8888888359069824
-485.8151028266293,3.5925924777984619
-484.62930317096834,2.6296296119689941
-483.44373586519578,2.9629628658294678
-482.25840086136122,1.1111111640930176
-481.07329811153795,2.7037036418914795
-479.88842756781014,-1.7777777910232544
-478.70378918227289,3.2592592239379883
-477.51938290702128,2.5925924777984619
-476.33520869418317,3.7037036418914795
-475.15126649588274,0.66666668653488159
-473.96755626426784,1.4074074029922485
-472.78407795148814,2.4814815521240234
-471.60083150970968,4.1481480598449707
-470.41781689110212,4.9629631042480469
-469.23503404786607,1.9629629850387573
-468.05248293220211,2.3333332538604736
-466.87016349631995,3.8148148059844971
-465.68807569244927,3.8518519401550293
-464.50621947281616,1.5925925970077515
-463.32459478968667,3.3333332538604736
-462.14320159531053,2.8888888359069824
-460.96203984196472,1.6296296119689941
-459.78110948193535,3.2962963581085205
-458.6004104675194,1.4444444179534912
-457.419942751023,5.7407407760620117
-456.239706284774,1.2222222089767456
-455.05970102109859,2.1851851940155029
-453.87992691234467,3.4814815521240234
-452.70038391086928,2.8518519401550293
-451.52107196904217,0.70370370149612427
-450.3419910392422,1.5925925970077515
-449.16314107386461,0.66666668653488159
-447.98452202531189,1.4074074029922485
-446.80613384600474,3.0370371341705322
-445.62797648836386,4.3703703880310059
-444.45004990483903,2.9259259700775146
-443.27235404787461,5.5185184478759766
-442.09488886994041,3.4814815521240234
-440.91765432350803,2.6296296119689941
-439.74065036106913,1.1481481790542603
-438.56387693512079,0.1111111119389534
-437.38733399817647,3.4444444179534912
-436.21102150276056,3.9629628658294678
-435.03493940140834,0.66666668653488159
-433.859087646666,2.1111111640930176
-432.6834661910907,2.8518519401550293
-431.50807498725953,2.2962963581085205
-430.33291398774963,2.1851851940155029
-429.15798314515814,3.8518519401550293
-427.98328241209492,2.0370371341705322
-426.80881174117167,3
-425.63457108502189,3.7777776718139648
-424.46056039629184,1.9259259700775146
-423.28677962762958,0.66666668653488159
-422.113228731705,2.7777776718139648
-420.93990766119532,0.81481480598449707
-419.76681636878857,2.2962963581085205
-418.59395480718376,2.2222223281860352
-417.4213229290981,2.8888888359069824
-416.24892068725239,1.7407407760620117
-415.07674803439113,2.2592592239379883
-413.90480492325514,5.6296296119689941
-412.73309130660527,2.4074075222015381
-411.56160713721874,2.9629628658294678
-410.39035236788004,1.3703703880310059
-409.21932695137548,3.9259259700775146
-408.04853084052229,4.2222223281860352
-406.87796398813043,2.6296296119689941
-405.70762634704261,2.7407407760620117
-404.53751787009242,3.2962963581085205
-403.36763851014075,2
-402.19798822004668,4.3333334922790527
-401.02856695269838,1.0370370149612427
-399.85937466097494,3.1481480598449707
-398.69041129778452,3.1481480598449707
-397.52167681603896,3.5925924777984619
-396.353171168661,1.7777777910232544
-395.18489430858972,0.29629629850387573
-394.01684618877334,3.0370371341705322
-392.84902676217644,1.6296296119689941
-391.68143598176539,4.5185184478759766
-390.51407380052297,3.6666667461395264
-389.3469401714483,1.5185185670852661
-388.18003504754779,0.59259259700775146
-387.01335838184059,4.9629631042480469
-385.84691012736039,1.703703761100769
-384.6806902371427,1.6296296119689941
-383.51469866424304,3.5185184478759766
-382.34893536172967,2.6296296119689941
-381.18340028268176,5.0740742683410645
-380.01809338018211,4.2962961196899414
-378.85301460734081,3.6666667461395264
-377.68816391725704,2.1851851940155029
-376.52354126307,5
-375.35914659789887,2
-374.19497987490831,4.8888888359069824
-373.03104104724662,2.8888888359069824
-371.86733006808936,4.2222223281860352
-370.70384689061211,3.3703703880310059
-369.54059146801774,1.8148148059844971
-368.37756375350727,4.2592592239379883
-367.21476370029814,0.70370370149612427
-366.05219126162228,3.4814815521240234
-364.8898463907135,4.3703703880310059
-363.72772904083467,3.2222223281860352
-362.56583916524323,5.2962961196899414
-361.40417671721116,4.2592592239379883
-360.24274165003226,1.9259259700775146
-359.081533917004,3.8148148059844971
-357.92055347143287,4.0740742683410645
-356.75980026664365,4.1481480598449707
-355.599274255972,4.7777776718139648
-354.43897539276259,1.4074074029922485
-353.27890363036749,5.1481480598449707
-352.11905892216055,2.5925924777984619
-350.95944122151559,3.2592592239379883
-349.80005048183375,4.7777776718139648
-348.64088665651252,2.4814815521240234
-347.48194969896213,5.0740742683410645
-346.32323956261644,6.2222223281860352
-345.1647562009075,3.8518519401550293
-344.00649956729103,7.592592716217041
-342.84846961522635,4.1851849555969238
-341.69066629818008,3.3333332538604736
-340.53308956964429,4.1111111640930176
-339.37573938310743,2.2962963581085205
-338.2186156920834,3.0370371341705322
-337.06171845008612,3.6296296119689941
-335.90504761065313,3.5925924777984619
-334.74860312731835,4.2592592239379883
-333.59238495363388,4.0370368957519531
-332.43639304317185,4.1111111640930176
-331.28062734950618,4.2222223281860352
-330.12508782622172,3
-328.96977442692332,3.4814815521240234
-327.81468710521767,3.7037036418914795
-326.65982581472417,4.7037038803100586
-325.50519050908952,5
-324.35078114194584,3.8518519401550293
-323.19659766695622,5.2962961196899414
-322.042640037791,3.9629628658294678
-320.88890820812412,5.9629631042480469
-319.73540213164961,3.7037036418914795
-318.58212176207417,4.55555534362793
-317.42906705310816,4.9259257316589355
-316.2762379584783,4.1851849555969238
-315.12363443192226,5.6296296119689941
-313.9712564271922,4.1111111640930176
-312.81910389803852,5.592592716217041
-311.66717679824615,4.5185184478759766
-310.51547508159092,6.2222223281860352
-309.36399870186324,5.7037038803100586
-308.21274761287896,5.1481480598449707
-307.0617217684503,5.55555534362793
-305.91092112241131,4.7037038803100586
-304.7603456285924,4.6666665077209473
-303.60999524085491,5.3333334922790527
-302.45986991305472,7.1111111640930176
-301.30996959907316,5.8518519401550293
-300.16029425279521,5.7407407760620117
-299.01084382811496,6.3703703880310059
-297.86161827894466,8.55555534362793
-296.71261755920386,6.6666665077209473
-295.563841622823,6.9629631042480469
-294.41529042374714,5.9259257316589355
-293.26696391593214,6.2222223281860352
-292.11886205333758,7.2592592239379883
-290.97098478994849,5.9259257316589355
-289.82333207974989,7.6296296119689941
-288.67590387674136,8.0740737915039063
-287.52870013493884,9
-286.38172080835648,9.11111068725586
-285.23496585103931,7.3333334922790527
-284.08843521702511,8.7037038803100586
-282.94212886037531,8.9629631042480469
-281.79604673515678,10.296296119689941
-280.65018879545278,9.4074077606201172
-279.50455499534473,8.4814815521240234
-278.359145288945,9.9259262084960938
-277.21395963036048,10.481481552124023
-276.06899797372535,6.9259257316589355
-274.92426027316469,9.55555534362793
-273.77974648283453,8.0370368957519531
-272.63545655689268,9.5925922393798828
-271.49139044950425,7.4814815521240234
-270.34754811485618,10.925926208496094
-269.20392950714449,10.148148536682129
-268.06053458056886,11.481481552124023
-266.91736328934348,11.666666984558105
-265.77441558769715,10.666666984558105
-264.631691429875,10.148148536682129
-263.48919077011669,9.44444465637207
-262.34691356268377,11.407407760620117
-261.20485976185773,10.518518447875977
-260.06302932191284,10.888889312744141
-258.92142219715242,11.481481552124023
-257.78003834187439,13.296296119689941
-256.63887771039481,10.44444465637207
-255.49794025705341,12.740740776062012
-254.35722593618084,11.888889312744141
-253.216734702135,13.148148536682129
-252.076466509272,12.777777671813965
-250.93642131196611,12.629630088806152
-249.7965990646062,11.777777671813965
-248.65699972158654,13.185185432434082
-247.51762323731782,15.851851463317871
-246.37846956621252,15.185185432434082
-245.23953866270131,13.962963104248047
-244.1008304812367,12.703703880310059
-242.96234497625483,16.222221374511719
-241.8240821022282,15.518518447875977
-240.68604181363298,18.111110687255859
-239.54822406495077,14.592592239379883
-238.41062881068319,15.740740776062012
-237.27325600533186,13.481481552124023
-236.13610560342386,18.185184478759766
-234.99917755948991,16.037036895751953
-233.862471828068,18.740739822387695
-232.72598836371435,16.222221374511719
-231.58972712099603,19.481481552124023
-230.45368805447833,19.518518447875977
-229.3178711187611,20.296297073364258
-228.18227626843509,18.666666030883789
-227.04690345811105,23.666666030883789
-225.91175264241065,22.925926208496094
-224.77682377596102,20.518518447875977
-223.64211681341294,24.740739822387695
-222.507631709419,24.148147583007813
-221.37336841863544,23.222221374511719
-220.2393268957494,28.962963104248047
-219.10550709544077,28.666666030883789
-217.97190897241308,26.222221374511719
-216.83853248137348,26.55555534362793
-215.70537757704551,25.925926208496094
-214.57244421415817,29.740739822387695
-213.43973234745863,29.629629135131836
-212.3072419316959,29.148147583007813
-211.1749729216408,29.259260177612305
-210.042925272066,28.629629135131836
-208.91109893776047,29.370370864868164
-207.77949387352419,31.481481552124023
-206.64811003416798,28.333333969116211
-205.5169473745118,33.444442749023438
-204.38600584938649,29.333333969116211
-203.25528541363383,29.407407760620117
-202.12478602211559,29.111110687255859
-200.99450762968627,28.925926208496094
-199.86445019123312,30.888889312744141
-198.73461366164156,28.259260177612305
-197.60499799580612,28.629629135131836
-196.47560314863586,27.888889312744141
-195.34642907505804,29.222221374511719
-194.21747572999993,29.333333969116211
-193.0887430684088,28
-191.96023104523192,30.148147583007813
-190.83193961544202,25.55555534362793
-189.70386873401003,28.44444465637207
-188.57601835592868,29.148147583007813
-187.44838843618891,28.037036895751953
-186.32097892980892,28.814815521240234
-185.19378979179783,31.333333969116211
-184.06682097719931,30.185184478759766
-182.94007244104978,32.888889312744141
-181.81354413840563,31.44444465637207
-180.68723602432692,33.259258270263672
-179.56114805389007,37.888889312744141
-178.43528018218967,38.185184478759766
-177.30963236431307,40.555557250976563
-176.18420455537307,42.555557250976563
-175.05899671049156,47.037036895751953
-173.93400878479952,48.814815521240234
-172.8092407334334,51.851852416992188
-171.68469251155148,55.851852416992188
-170.56036407431748,60.888889312744141
-169.43625537690059,65.0740737915039
-168.31236637449183,69.148147583007813
-167.18869702228221,73.0740737915039
-166.06524727548822,75.740737915039063
-164.94201708932451,78.703704833984375
-163.81900641901848,79.111114501953125
-162.69621521981026,78.555557250976563
-161.57364344695634,80.59259033203125
-160.45129105571505,83.037040710449219
-159.32915800136652,82.333335876464844
-158.20724423918546,80.59259033203125
-157.08554972447382,82.629631042480469
-155.96407441253541,80.9259262084961
-154.84281825868857,83.185188293457031
-153.72178121826437,82.555557250976563
-152.60096324659753,86.777778625488281
-151.48036429904278,86.59259033203125
-150.35998433095847,86.222221374511719
-149.23982329771206,89.629631042480469
-148.11988115469831,93.888885498046875
-147.0001578572992,92.037040710449219
-145.88065336092768,93.370368957519531
-144.76136762099122,100.07407379150391
-143.64230059293004,105.18518829345703
-142.5234522321698,107.03704071044922
-141.40482249415982,110.14814758300781
-140.28641133436759,112.59259033203125
-139.16821870825697,116.96295928955078
-138.05024457131003,121.88888549804688
-136.93248887901791,123.74073791503906
-135.81495158688631,129.29629516601563
-134.69763265042639,134.77777099609375
-133.58053202516567,144.77777099609375
-132.46364966663896,144.66667175292969
-131.34698553039198,152.03703308105469
-130.23053957198317,156.74073791503906
-129.11431174697645,164.03703308105469
-127.99830201095756,166.74073791503906
-126.8825103195104,169.74073791503906
-125.76693662824073,181.37037658691406
-124.65158089275792,185.25926208496094
-123.53644306868227,189.22222900390625
-122.42152311165228,191.88888549804688
-121.30682097731187,200
-120.19233662130864,202.8148193359375
-119.07806999931199,210.88888549804688
-117.96402106700589,212.33332824707031
-116.85018978006883,217.22222900390625
-115.73657609419934,221.14814758300781
-114.62317996511774,227.1851806640625
-113.51000134852802,231.03703308105469
-112.39704020017234,230.51852416992188
-111.28429647578741,235.77777099609375
-110.17177013112814,242.55555725097656
-109.05946112195488,242.96296691894531
-107.94736940404619,247.85185241699219
-106.83549493318606,251.11111450195313
-105.72383766516577,256.29629516601563
-104.612397555793,255.51852416992188
-103.50117456088628,262.92593383789063
-102.39016863627148,264.8148193359375
-101.27937973778899,267.96295166015625
-100.16880782129374,275.70370483398438
-99.058452842637053,281.29629516601563
-97.9483147576957,287.33334350585938
-96.838393522348269,295.88888549804688
-95.728689092489731,307.4444580078125
-94.6192014240205,315.85183715820313
-93.509930472861015,324.25924682617188
-92.400876194924422,337.48147583007813
-91.2920385461548,357.59259033203125
-90.183417482501682,360
-89.075012959910964,356.33334350585938
-87.9668249343631,356.22222900390625
-86.85885336182946,358.85183715820313
-85.751098198299587,357
-84.643559399773949,366.370361328125
-83.536236922265743,368.33334350585938
-82.429130721789988,364.51852416992188
-81.322240754388986,360.40740966796875
-80.215566976095943,362.07406616210938
-79.109109342967713,361.96295166015625
-78.002867811070246,367.5555419921875
-76.896842336478585,384
-75.791032875273231,399.1851806640625
-74.685439383558332,420.629638671875
-73.580061817436217,439.51852416992188
-72.474900133025585,457.4444580078125
-71.3699542864506,461.85183715820313
-70.265224233859044,458.03704833984375
-69.160709931396923,457.370361328125
-68.05641133521749,443.07406616210938
-66.952328401503109,439.66665649414063
-65.848461086430689,437.8148193359375
-64.7448093461935,435.07406616210938
-63.641373136992115,448.92593383789063
-62.538152415045261,455.5555419921875
-61.435147136569867,469.4444580078125
-60.332357257806507,497.40740966796875
-59.229782735001208,526.29632568359375
-58.127423524405458,587.1851806640625
-57.025279582292569,646
-55.923350864935855,712.70367431640625
-54.821637328623183,754.370361328125
-53.720138929656969,752.66668701171875
-52.618855624345088,729.40740966796875
-51.517787369006328,700.1851806640625
-50.41693411997403,684.51849365234375
-49.316295833586992,692.03704833984375
-48.215872466198562,729.03704833984375
-47.115663974169365,832.5555419921875
-46.015670313878218,1020.4444580078125
-44.915891441702115,1295.148193359375
-43.816327314034424,1565.6666259765625
-42.716977887288522,1836.9259033203125
-41.617843117875964,2019.22216796875
-40.518922962221041,1976.629638671875
-39.420217376760775,1895.0369873046875
-38.3217263179431,1934.148193359375
-37.223449742226876,1981.629638671875
-36.125387606081858,1941.111083984375
-35.027539865983272,1770.77783203125
-33.929906478420889,1523.77783203125
-32.832487399897218,1371.4444580078125
-31.735282586923859,1396.3333740234375
-30.638291996019689,1657.4814453125
-29.541515583716318,2216.370361328125
-28.44495330655991,2986.185302734375
-27.348605121096625,3138.111083984375
-26.252470983896274,2449.22216796875
-25.156550851528664,1789.4073486328125
-24.060844680578157,1406.9259033203125
-22.965352427649123,1206.22216796875
-21.870074049333198,1120.77783203125
-20.775009502252942,1093.22216796875
-19.680158743038191,965.77777099609375
-18.585521728322419,894.29632568359375
-17.491098414751832,850.03704833984375
-16.396888758989007,844.14813232421875
-15.302892717698342,834.29632568359375
-14.209110247560602,843.48150634765625
-13.115541305269289,852.8148193359375
-12.022185847514265,860.370361328125
-10.929043831019953,868.4444580078125
-9.8361152124980435,886.370361328125
-8.7433999486820539,891.85186767578125
-7.65089799631096,881.29632568359375
-6.5586093121492013,844.370361328125
-5.466533852946668,627.29632568359375
-4.3746715754823526,175.92591857910156
-3.2830224365425238,49.259258270263672
-2.1915863929170882,61.185184478759766
-1.1003634014141426,72.740737915039063
-0.0093534188454214018,92.333335876464844
1.0814435979573318,71.851852416992188
2.1720276921641926,24.074073791503906
3.2623989069197705,45.740741729736328
4.35255728537777,230.25926208496094
5.4425028706609737,708.96295166015625
6.5322357058976195,857.25927734375
7.6217558341977565,889.70367431640625
8.7110632986587,883.888916015625
9.8001581423777679,883.96295166015625
10.889040408424989,884.14813232421875
11.977710139883129,883.66668701171875
13.06616737980039,879.5555419921875
14.154412171230433,888.1851806640625
15.242444557208728,895.1851806640625
16.330264580770745,898.1851806640625
17.417872284928308,919.40740966796875
18.50526771269142,966.111083984375
19.592450907051898,1089.4444580078125
20.679421910997917,1205.370361328125
21.766180767510377,1251.5185546875
22.852727519550172,1383.7037353515625
23.939062210076372,1674.5926513671875
25.025184882029862,2175.073974609375
26.111095578347886,2974.888916015625
27.196794341953137,3564.5185546875
28.28228121576285,3151.370361328125
29.367556242677892,2266.073974609375
30.452619465586395,1709.25927734375
31.537470927380127,1526.0740966796875
32.622110670923576,1577.0740966796875
33.706538739086682,1788.22216796875
34.790755174713922,2071.29638671875
35.874760020649774,2208.4443359375
36.95855331972416,2294.22216796875
38.04213511476155,2195.037109375
39.125505448568219,2191.77783203125
40.208664363943171,2291.851806640625
41.291611903676312,2306.851806640625
42.37434811055391,2080.22216796875
43.45687302733495,1783.77783203125
44.539186696785691,1454.4814453125
45.621289161648747,1170.4814453125
46.703180464664911,967.14813232421875
47.784860648560425,857.40740966796875
48.866329756052437,812.33331298828125
49.947587829856275,809.0740966796875
51.028634912656344,847.51849365234375
52.109471047146144,888.888916015625
53.190096275999167,920.629638671875
54.270510641885267,907.70367431640625
55.350714187454287,869.14813232421875
56.430706955356072,788.888916015625
57.5104889882241,721.370361328125
58.590060328684558,659.70367431640625
59.669421019347283,619.77777099609375
60.7485711028221,584
61.82751062170064,571.85186767578125
62.906239618561813,551.66668701171875
63.984758135989978,545.111083984375
65.063066216536754,546.96295166015625
66.141163902764674,555.33331298828125
67.219051237207168,561.25927734375
68.29672826240494,580.70367431640625
69.374195020876869,584.33331298828125
70.4514515551291,589.51849365234375
71.528497907673227,591.74072265625
72.605334120997213,584.48150634765625
73.681960237579915,557.8148193359375
74.758376299892916,535.74072265625
75.8345823503987,509.92593383789063
76.910578431545218,501.85183715820313
77.986364585774936,483.8148193359375
79.061940855521243,474
80.137307283193877,483
81.212463911211671,491.11111450195313
82.28741078197163,495.66665649414063
83.362147937861664,495.66665649414063
84.436675421262407,499.5555419921875
85.51099327454358,491.85183715820313
86.58510154006035,493.370361328125
87.659000260162429,492.88888549804688
88.7326894771868,499.25924682617188
89.80616923346679,497.66665649414063
90.879439571315743,488.74075317382813
91.952500533045168,471.40740966796875
93.025352160946568,455.22222900390625
94.097994497313266,439.8148193359375
95.170427584422214,430.96295166015625
96.242651464532173,424.74075317382813
97.314666179911,409.8148193359375
98.386471772804725,407.48147583007813
99.458068285441186,397.66665649414063
100.52945576005368,395.29629516601563
101.60063423885185,388.8148193359375
102.67160376405081,381.77777099609375
103.74236437784384,377.59259033203125
104.81291612240966,372.25924682617188
105.88325903993427,371.14816284179688
106.95339317257822,362.77777099609375
108.02331856250021,354.74075317382813
109.09303525183896,359.370361328125
110.16254328273681,346.96295166015625
111.23184269731064,348.370361328125
112.30093353768643,343.4444580078125
113.36981584596106,341.85183715820313
114.43848966423138,334.25924682617188
115.50695503458155,332.8148193359375
116.57521199908842,321.03704833984375
117.64326059981613,321.14816284179688
118.71110087881789,319.07406616210938
119.77873287813418,310.59259033203125
120.8461566398073,305.22222900390625
121.91337220585774,300.40740966796875
122.98037961829687,296.03704833984375
124.04717891912696,282.70370483398438
125.11377015035214,279.92593383789063
126.18015335394557,266.96295166015625
127.24632857188772,267.4444580078125
128.31229584614084,258
129.37805521865448,246.70370483398438
130.44360673138181,243.33332824707031
131.50895042624506,237.74073791503906
132.57408634517378,228
133.63901453007747,220.03703308105469
134.70373502286202,212.59259033203125
135.76824786542602,208.88888549804688
136.83255309964807,199.29629516601563
137.89665076739402,194.33332824707031
138.96054091054066,190.48147583007813
140.024223570932,184.33332824707031
141.08769879041392,179.03703308105469
142.1509666108177,173.11111450195313
143.214027073971,171.55555725097656
144.27688022168513,166.14814758300781
145.33952609575863,159.70370483398438
146.40196473799006,157.77777099609375
147.46419619015978,154.03703308105469
148.52622049404272,148.55555725097656
149.58803769140104,146
150.64964782398602,144.48147583007813
151.71105093354345,145.77777099609375
152.77224706180459,146.66667175292969
153.83323625049343,145.48147583007813
154.89401854132302,143.55555725097656
155.95459397599734,142.77777099609375
157.01496259620762,142.85185241699219
158.07512444363783,147.88888549804688
159.13507955996283,143.14814758300781
160.19482798684112,143.85185241699219
161.25436976592937,145.07408142089844
162.31370493887334,143.22222900390625
163.37283354730243,143.25926208496094
164.4317556328424,137.62962341308594
165.49047123710079,138.77777099609375
166.54898040169246,131.37037658691406
167.60728316820132,125.03704071044922
168.66537957821311,118.96295928955078
169.72326967330264,110.96295928955078
170.780953495032,103.92592620849609
171.83843108495967,98.222221374511719
172.89570248462041,91.888885498046875
173.95276773555634,86.111114501953125
175.00962687929132,78.111114501953125
176.06627995733652,77.222221374511719
177.12272701119764,71.851852416992188
178.178968082364,70.962959289550781
179.23500321232495,65.481483459472656
180.2908324425498,64.703704833984375
181.34645581451332,58.777778625488281
182.40187336966119,58.333332061767578
183.45708514943908,56.370368957519531
184.51209119528539,58.222221374511719
185.56689154862397,58.814815521240234
186.62148625086775,57.259258270263672
187.67587534342056,54.629631042480469
188.7300588676826,52.185184478759766
189.78403686503225,54.370368957519531
190.83780937685697,56.481479644775391
191.89137644451148,56.185184478759766
192.94473810935415,53.777778625488281
193.9978944127306,54.185184478759766
195.050845395981,53.037036895751953
196.10359110042373,55.148147583007813
197.15613156738254,56
198.20846683816126,56.222221374511719
199.26059695405638,58.222221374511719
200.31252195635352,54.629631042480469
201.36424188632918,58.222221374511719
202.4157567852526,57.407405853271484
203.4670666943839,57.037036895751953
204.51817165496323,60.962963104248047
205.56907170823069,58.481479644775391
206.61976689541734,56.814815521240234
207.670257257736,61.074073791503906
208.72054283640318,57.740741729736328
209.77062367260442,60.925926208496094
210.820499807538,57.148147583007813
211.8701712823804,56.444442749023438
212.91963813829716,58.851852416992188
213.96890041645383,58.407405853271484
215.01795815799051,57.592594146728516
216.06681140405453,58.666667938232422
217.11546019577327,51.703704833984375
218.16390457426678,56.296295166015625
219.2121445806406,51.777778625488281
220.26018025599478,51.407405853271484
221.30801164143122,49.444442749023438
222.35563877801724,48.444442749023438
223.40306170683289,46.925926208496094
224.45028046893094,42.666667938232422
225.49729510536963,44.740741729736328
226.54410565718536,42.740741729736328
227.59071216541633,41.666667938232422
228.6371146710826,38.925926208496094
229.68331321518963,39.888889312744141
230.72930783874654,38.222221374511719
231.77509858274425,37.111110687255859
232.82068548816642,37.962963104248047
233.86606859598396,37.148147583007813
234.91124794716416,37.629631042480469
235.95622358265609,34.407405853271484
237.00099554340886,34.185184478759766
238.04556387035336,38.148147583007813
239.08992860441322,31.44444465637207
240.13408978650659,32.407405853271484
241.1780474575371,32.962963104248047
242.22180165840109,31.55555534362793
243.26535242998034,31.296297073364258
244.30869981315118,32.074073791503906
245.35184384878812,32.259258270263672
246.39478457773839,29.296297073364258
247.43752204085104,30.148147583007813
248.48005627896237,30.296297073364258
249.52238733290687,27.259260177612305
250.56451524348995,26.703702926635742
251.60644005152972,29.44444465637207
252.64816179782065,28.851852416992188
253.68968052315358,28.777778625488281
254.730996268303,25.629629135131836
255.77210907403787,24.925926208496094
256.81301898112542,26.740739822387695
257.85372603030919,26.222221374511719
258.89423026233089,21.481481552124023
259.93453171791953,25.259260177612305
260.9746304377968,24.333333969116211
262.01452646267171,24.518518447875977
263.05421983325323,23.666666030883789
264.09371059022669,26.962963104248047
265.13299877427562,23.703702926635742
266.1720844260708,23.481481552124023
267.21096758627755,23.407407760620117
268.24964829555029,27.962963104248047
269.2881265945307,23.740739822387695
270.32640252385318,25.111110687255859
271.3644761241394,24.518518447875977
272.40234743601104,22.629629135131836
273.44001650006248,27
274.47748335689721,20.962963104248047
275.51474804710051,21.592592239379883
276.55181061124858,22.777778625488281
277.58867108990307,20.888889312744141
278.6253295236238,22.814815521240234
279.66178595296151,23
280.69804041844691,20.111110687255859
281.73409296061618,22.111110687255859
282.76994361998004,19.370370864868164
283.805592437051,19.592592239379883
284.84103945233073,19.888889312744141
285.87628470630625,22.037036895751953
286.91132823945736,19.55555534362793
287.94617009225294,21.259260177612305
288.98081030516005,18.888889312744141
290.01524891862209,17.814815521240234
291.04948597308794,20
292.08352150898645,16.518518447875977
293.11735556673921,19
294.1509881867587,17.074073791503906
295.18441940945377,16.888889312744141
296.21764927521144,16.629629135131836
297.25067782442056,17.111110687255859
298.2835050974536,16.777778625488281
299.31613113467938,16.296297073364258
300.34855597644855,15.888889312744141
301.38077966311357,14.666666984558105
302.41280223500326,16.925926208496094
303.44462373245005,14.703703880310059
304.47624419576641,13.814814567565918
305.50766366526477,12.55555534362793
306.53888218124666,15.703703880310059
307.56989978399361,13.259259223937988
308.60071651379076,14.740740776062012
309.63133241090145,14.777777671813965
310.66174751559265,14.111110687255859
311.69196186811314,13.296296119689941
312.72197550869896,14.740740776062012
313.7517884775898,15.777777671813965
314.78140081500351,13.592592239379883
315.81081256115249,12.666666984558105
316.84002375624368,14.148148536682129
317.86903444046584,12.407407760620117
318.89784465400771,14.259259223937988
319.92645443703987,12.222222328186035
320.95486382973104,10.777777671813965
321.98307287223361,14.407407760620117
323.01108160469812,13.44444465637207
324.03889006725694,13.629630088806152
325.06649830004426,13.333333015441895
326.09390634316696,13.370369911193848
327.12111423674287,10.222222328186035
328.14812202086614,12.592592239379883
329.1749297356273,12.037036895751953
330.20153742110597,10.962963104248047
331.22794511737266,12.481481552124023
332.25415286449424,12.629630088806152
333.28016070251033,9.88888931274414
334.30596867147324,13.666666984558105
335.33157681140983,11.740740776062012
336.356985162347,13.037036895751953
337.38219376429515,11.111110687255859
338.40720265726304,11.333333015441895
339.4320118812393,13.592592239379883
340.45662147621442,15.851851463317871
341.48103148216251,12.703703880310059
342.50524193905039,15.037036895751953
343.52925288683764,14.148148536682129
344.55306436546562,13.740740776062012
345.57667641487933,11.333333015441895
346.60008907500196,11.851851463317871
347.62330238575669,11.666666984558105
348.6463163870576,11.111110687255859
349.66913111879694,11.074073791503906
350.691746620867,9.44444465637207
351.71416293315815,11.333333015441895
352.73638009553179,11.777777671813965
353.75839814785832,13.851851463317871
354.78021712998816,11.666666984558105
355.80183708176628,10.518518447875977
356.82325804302855,7.9259257316589355
357.84448005359627,10.703703880310059
358.86550315329259,12.55555534362793
359.88632738192064,9.7037038803100586
360.90695277927625,10.370369911193848
361.9273793851462,8.11111068725586
362.94760723931722,10.185185432434082
363.9676363815488,10.518518447875977
364.98746685160586,9.7777776718139648
366.00709868923332,8.1481485366821289
367.02653193418337,10.222222328186035
368.0457666261791,9.8518514633178711
369.06480280494725,8.88888931274414
370.08364051019453,8.4814815521240234
371.10227978162948,10.111110687255859
372.12072065894608,9.9629631042480469
373.13896318183288,7.9629631042480469
374.15700738995474,8.0740737915039063
375.17485332298929,11.44444465637207
376.1925010205905,8.9259262084960938
377.20995052240505,10.962963104248047
378.22720186806691,10.814814567565918
379.24425509721186,8.7037038803100586
380.26111024945749,9.9259262084960938
381.27776736441228,10.148148536682129
382.29422648167929,10.148148536682129
383.31048764085062,10.44444465637207
384.3265508815075,10.666666984558105
385.34241624322385,6.8518519401550293
386.35808376556452,11.111110687255859
387.37355348807978,10.370369911193848
388.38882545031993,9.5925922393798828
389.40389969181524,8.2222223281860352
390.41877625210145,8.2962961196899414
391.433455170687,12.148148536682129
392.447936487084,10.222222328186035
393.46222024079,9.2962961196899414
394.476306471297,9.9259262084960938
395.49019521808259,6.592592716217041
396.50388652061883,8.11111068725586
397.51738041836506,8.5925922393798828
398.530676950777,8.6296300888061523
399.54377615729936,9.0740737915039063
400.55667807736063,9.2222223281860352
401.5693827503892,8.6666669845581055
402.5818902157971,10.037036895751953
403.59420051299639,10.666666984558105
404.60631368137911,11.111110687255859
405.61822976033545,8.2592592239379883
406.62994878923928,8.5925922393798828
407.64147080746443,9.2222223281860352
408.6527958543702,6.0740742683410645
409.66392396930314,6.407407283782959
410.67485519161164,8
411.68558956062407,9.0370368957519531
412.69612711565969,9.0740737915039063
413.70646789603961,7.1481480598449707
414.71661194106127,9.3333330154418945
415.72655929002758,6.2592592239379883
416.73630998222143,10.333333015441895
417.745864056913,8.9259262084960938
418.75522155338149,8.9259262084960938
419.76438251087711,7.7407407760620117
420.77334696865182,9.6296300888061523
421.78211496594486,7.5185184478759766
422.79068654198818,8.55555534362793
423.79906173600284,9
424.80724058720261,9.3333330154418945
425.81522313478672,6.55555534362793
426.82300941795256,8.9629631042480469
427.83059947589027,8.8518514633178711
428.8379933477645,9.7407407760620117
429.84519107274537,9.6296300888061523
430.85219268999572,8.6666669845581055
431.85899823866021,8.0740737915039063
432.86560775787439,7.55555534362793
433.87202128677382,7.1111111640930176
434.8782388644795,7.8148150444030762
435.88426053009243,7.9259257316589355
436.89008632272635,8.814814567565918
437.89571628147496,9.2592592239379883
438.9011504454138,7.7407407760620117
439.90638885362387,8.55555534362793
440.91143154516431,6.3333334922790527
441.91627855910519,9.55555534362793
442.92092993447841,7
443.92538571033219,8.0370368957519531
444.92964592569297,7.2962961196899414
445.93371061957805,7.44444465637207
446.93757983100477,6.7407407760620117
447.94125359896861,6.8888888359069824
448.94473196246508,6.6296296119689941
449.94801496047694,9.1481485366821289
450.95110263197967,10
451.953995015936,6.7407407760620117
452.95669215130511,7.1851849555969238
453.95919407703332,8.2592592239379883
454.96150083205976,7.8148150444030762
455.96361245530716,8.55555534362793
456.96552898570553,7.5185184478759766
457.96725046215579,9.11111068725586
458.96877692356611,7.8888888359069824
459.97010840882649,9.2592592239379883
460.971244956816,6.592592716217041
461.972186606421,8.2222223281860352
462.97293339649332,9.6296300888061523
463.97348536589743,6.1481480598449707
464.97384255347788,8.2962961196899414
465.97400499807009,10
466.97397273850584,6.9259257316589355
467.97374581360418,7.1481480598449707
468.97332426217872,7.6666665077209473
469.9727081230285,9.11111068725586
470.97189743494346,8.11111068725586
471.97089223671173,7.2222223281860352
472.96969256710508,9.4074077606201172
473.96829846489163,8.2962961196899414
474.96670996882312,8.5185184478759766
475.96492711765313,7.0740742683410645
476.96294995011704,5.7037038803100586
477.96077850494112,8.4814815521240234
478.958412820848,9.6296300888061523
479.95585293654949,6.44444465637207
480.95309889074997,11.074073791503906
481.95015072213755,7.9259257316589355
482.94700846940214,9.7777776718139648
483.94367217121362,7.2592592239379883
484.94014186624008,9.0740737915039063
485.93641759313687,8.5185184478759766
486.93249939055568,5.8148150444030762
487.92838729713003,7.592592716217041
488.92408135149708,7.407407283782959
489.91958159227397,8.5925922393798828
490.91488805807057,6.3703703880310059
491.9100007874913,8.11111068725586
492.90491981913328,8.6296300888061523
493.89964519157547,8
494.89417694339863,8.6666669845581055
495.88851511317262,4.9259257316589355
496.88265973944726,9.7777776718139648
497.87661086077605,6.1851849555969238
498.87036851569792,6.7037038803100586
499.86393274274451,8.4814815521240234
500.8573035804402,8.2222223281860352
501.85048106729482,8.6296300888061523
502.84346524181092,7.7037038803100586
503.83625614248922,8.2592592239379883
504.82885380781045,8.1481485366821289
505.82125827625532,9.3703699111938477
506.81346958628819,7.3703703880310059
507.80548777637341,8.8518514633178711
508.79731288496077,5.9629631042480469
509.78894495048735,8.2592592239379883
510.7803840113902,8.1481485366821289
511.77163010608638,9.4074077606201172
512.7626832729984,6.3333334922790527
513.753543550527,8.185185432434082
514.74421097707091,8.814814567565918
515.73468559101457,8.88888931274414
516.72496743074043,7.3703703880310059
517.71505653461827,8
518.7049529410051,7.7037038803100586
519.69465668825978,9.1481485366821289
520.68416781471751,6.7777776718139648
521.67348635871713,8.2962961196899414
522.6626123585811,8.5925922393798828
523.6515458526319,6.8888888359069824
524.64028687916834,7.9629631042480469
525.62883547649471,8.3333330154418945
526.61719168289892,9.2592592239379883
527.60535553665977,6.8888888359069824
528.59332707605427,8
529.58110633933939,6.8888888359069824
530.5686933647703,6.0740742683410645
531.55608819059671,10.074073791503906
532.543290855052,6.1111111640930176
533.53030139635848,6.7037038803100586
534.517119852746,8.2222223281860352
535.50374626241319,9.11111068725586
536.49018066356621,8.2592592239379883
537.47642309439289,9.0740737915039063
538.46247359308109,5.2592592239379883
539.44833219780412,8.7037038803100586
540.43399894672075,9.0740737915039063
541.419473877997,8.6296300888061523
542.40475702977346,6.8518519401550293
543.38984844019069,5.2222223281860352
544.37474814737834,7.2592592239379883
545.35945618945516,6.7407407760620117
546.3439726045417,7.1481480598449707
547.32829743073307,10.592592239379883
548.31243070612072,6.5185184478759766
549.29637246879975,9.44444465637207
550.28012275683977,7.1481480598449707
551.26368160831407,4.6666665077209473
552.24704906127408,10.296296119689941
553.23022515377488,7.6666665077209473
554.21320992386063,5.2592592239379883
555.19600340955367,9.44444465637207
556.1786056488927,7.6666665077209473
557.16101667987823,8.2592592239379883
558.14323654052532,7.2222223281860352
559.12526526882721,6.8888888359069824
560.10710290277348,7.2962961196899414
561.088749480341,8.7777776718139648
562.07020503950662,7.6666665077209473
563.0514696182272,8.7777776718139648
564.03254325445778,9.88888931274414
565.01342598614065,8.6666669845581055
565.99411785121265,13.370369911193848
566.97461888760517,18.259260177612305
567.9549291332296,17.074073791503906
568.93504862599912,12.777777671813965
569.91497740381055,9.88888931274414
570.89471550455892,9
571.8742629661283,7.2592592239379883
572.85361982638642,9.9629631042480469
573.83278612320282,8.0740737915039063
574.81176189443613,6.1851849555969238
575.79054717792678,6.6296296119689941
576.76914201152067,8.6666669845581055
577.747546433051,5.0740742683410645
578.72576048033079,9.8518514633178711
579.70378419117333,6.8518519401550293
580.6816176033899,9.44444465637207
581.65926075476636,7.8148150444030762
582.63671368309952,8.2222223281860352
583.613976426157,8.9259262084960938
584.59104902171384,9.3703699111938477
585.56793150752856,6.3703703880310059
586.54462392135247,9.0370368957519531
587.52112630092961,6.9259257316589355
588.49743868399491,9.4814815521240234
589.473561108267,7.0740742683410645
590.44949361146973,5.7407407760620117
591.42523623130546,8.0370368957519531
592.40078900547815,7.3703703880310059
593.37615197168088,8.7037038803100586
594.35132516758313,7.7407407760620117
595.32630863086888,7.7407407760620117
596.30110239920032,7.44444465637207
597.27570651022688,5.9629631042480469
598.25012100160166,7.1851849555969238
599.22434591095953,8.6296300888061523
600.19838127593539,9.4814815521240234
601.17222713414048,6.7037038803100586
602.145883523197,7.6666665077209473
603.11935048069972,10.407407760620117
604.09262804424907,6.2222223281860352
605.06571625142715,7.7037038803100586
606.03861513981246,6.407407283782959
607.01132474697624,7.5185184478759766
607.98384511047152,6.7777776718139648
608.95617626785679,7.1851849555969238
609.92831825667054,8.4074077606201172
610.90027111445124,8.11111068725586
611.87203487871375,6.7777776718139648
612.84360958698562,5.8518519401550293
613.81499527677443,7
614.78619198556953,9.3703699111938477
615.75719975086758,8.55555534362793
616.7280186101525,9.814814567565918
617.69864860089183,8.4814815521240234
618.66908976055493,5.3703703880310059
619.63934212659842,7.9629631042480469
620.60940573646621,6.592592716217041
621.57928062759311,6.7407407760620117
622.54896683741936,8.5185184478759766
623.51846440335976,6.5185184478759766
624.48777336282728,6.9629631042480469
625.45689375322763,8.7777776718139648
626.42582561195377,8.3703699111938477
627.394568976395,7.9259257316589355
628.363123883928,6.9259257316589355
629.331490371922,6.7777776718139648
630.299668477739,6.8888888359069824
631.26765823873393,8.4074077606201172
632.23545969224324,5.9259257316589355
633.20307287561081,5.2962961196899414
634.170497826155,7.9259257316589355
635.137734581198,6.2962961196899414
636.10478317805246,7.0370368957519531
637.0716436540115,6.407407283782959
638.03831604637162,7.6666665077209473
639.004800392413,7.8148150444030762
639.97109672941588,8.1481485366821289
640.9372050946422,7.7777776718139648
641.90312552535215,6.4814815521240234
642.86885805879137,9.55555534362793
643.83440273220367,6.0740742683410645
644.79975958282012,4.2592592239379883
645.76492864786451,8.4814815521240234
646.72990996454973,8.9629631042480469
647.69470357008322,7.1481480598449707
648.6593095016633,8.7777776718139648
649.6237277964774,7.7037038803100586
650.58795849170929,9.9629631042480469
651.5520016245282,6.7407407760620117
652.51585723209973,7.44444465637207
653.4795253515731,7.2962961196899414
654.44300602009935,7.4814815521240234
655.406299274815,8.4814815521240234
656.3694051528546,7.55555534362793
657.33232369132747,8.7407407760620117
658.29505492735188,8.7037038803100586
659.25759889803339,6.0740742683410645
660.21995564046847,6.0740742683410645
661.182125191739,8.7037038803100586
662.14410758892154,7.2962961196899414
663.10590286909064,7.6666665077209473
664.067511069301,5.5185184478759766
665.02893222660714,6.3703703880310059
665.99016637806017,5.9259257316589355
666.95121356068557,8.6666669845581055
667.91207381151617,5.592592716217041
668.87274716756838,6.2962961196899414
669.83323366584955,7.7037038803100586
670.7935333433652,7.2592592239379883
671.75364623710266,5.8148150444030762
672.71357238405108,6.3703703880310059
673.673311821185,6.8148150444030762
674.63286458547191,8.6666669845581055
675.59223071386987,7.407407283782959
676.55141024332806,5.7407407760620117
677.51040321079017,7.592592716217041
678.46920965318714,7.44444465637207
679.42782960744807,7.4814815521240234
680.38626311048392,8.44444465637207
681.34451019920562,4.6666665077209473
682.30257091051317,8
683.26044528129387,7.7037038803100586
684.21813334843318,8
685.17563514880567,7.4814815521240234
686.13295071927132,6.2962961196899414
687.0900800966956,7.44444465637207
688.04702331792032,7.1851849555969238
689.00378041978729,6.6296296119689941
689.96035143912923,6.3703703880310059
