-773.51195264083617,0.93548387289047241
-772.26970635356884,1.3225806951522827
-771.02770412717837,1.2258064746856689
-769.785945910744,1.5806452035903931
-768.5444316533667,1.3225806951522827
-767.30316130416213,2.0967741012573242
-766.06213481226041,1.3870967626571655
-764.821352126799,-1.9032257795333862
-763.58081319693338,4.2580647468566895
-762.34051797182656,0.90322577953338623
-761.10046640066685,-1.1935484409332275
-759.86065843263532,1.0645161867141724
-758.62109401694215,0.80645161867141724
-757.38177310281208,1.9032257795333862
-756.14269563946254,0.87096774578094482
-754.90386157614739,0.32258063554763794
-753.66527086213136,0.5161290168762207
-752.42692344666466,0.32258063554763794
-751.188819279052,1.1612902879714966
-749.95095830857281,1.4193547964096069
-748.71334048454628,0.61290323734283447
-747.47596575629541,2.2258064746856689
-746.23883407314679,1.5806452035903931
-745.00194538445612,2.2258064746856689
-743.76529963958274,-0.61290323734283447
-742.52889678790052,0.38709676265716553
-741.29273677879792,0.67741936445236206
-740.05681956167064,0.64516127109527588
-738.82114508593622,0.87096774578094482
-737.5857133010195,1.1290322542190552
-736.35052415635982,-0.22580644488334656
-735.11557760140022,-0.90322577953338623
-733.88087358561643,-0.41935482621192932
-732.64641205848784,3.1935484409332275
-731.41219296949384,-0.32258063554763794
-730.17821626814293,2.1612904071807861
-728.94448190395451,0.54838711023330688
-727.71098982645526,2.0967741012573242
-726.47773998518278,1.2258064746856689
-725.24473232970013,1.6451612710952759
-724.01196680956673,-0.64516127109527588
-722.77944337437111,-0.35483869910240173
-721.5471619737018,-0.54838711023330688
-720.31512255716552,-2.1935484409332275
-719.08332507438354,1.6774193048477173
-717.85176947499167,-0.096774190664291382
-716.62045570861846,0.32258063554763794
-715.3893837249434,0.45161288976669312
-714.15855347362412,1.3870967626571655
-712.92796490434375,-0.38709676265716553
-711.69761796680723,0.61290323734283447
-710.46751261071586,0.58064514398574829
-709.23764878579277,1.1935484409332275
-708.00802644177929,-0.032258063554763794
-706.77864552840947,-0.48387095332145691
-705.549505995461,1.7419354915618896
-704.32060779268977,1.7096774578094482
-703.09195086989894,-0.61290323734283447
-701.86353517687348,3.5806450843811035
-700.63536066343477,0.48387095332145691
-699.40742727940051,1.0322580337524414
-698.17973497461026,2
-696.95228369891447,0.29032257199287415
-695.72507340217453,1.4838709831237793
-694.49810403426636,0.22580644488334656
-693.27137554508408,2.5161290168762207
-692.04488788451818,-0.64516127109527588
-690.81864100249186,-0.12903225421905518
-689.59263484892472,2.8064515590667725
-688.3668693737618,2.5161290168762207
-687.1413445269518,-0.45161288976669312
-685.91606025846522,-0.096774190664291382
-684.69101651826531,0.58064514398574829
-683.466213256359,0.32258063554763794
-682.24165042274217,-0.54838711023330688
-681.01732796742908,0.83870965242385864
-679.79324584045207,0.5161290168762207
-678.5694039918435,1.5161290168762207
-677.34580237166847,1.0967742204666138
-676.12244092999572,1.5806452035903931
-674.89931961689035,0.25806450843811035
-673.67643838245749,0
-672.45379717679134,-0.16129031777381897
-671.23139595001885,-0.19354838132858276
-670.00923465226333,1.5161290168762207
-668.78731323367356,1.6129032373428345
-667.56563164439831,-0.064516127109527588
-666.34418983461183,-0.80645161867141724
-665.122987754492,0.58064514398574829
-663.90202535423487,1.1290322542190552
-662.68130258404017,0.87096774578094482
-661.46081939413307,0.096774190664291382
-660.240575734746,0.70967739820480347
-659.0205715561151,1.0645161867141724
-657.80080680850187,-0.032258063554763794
-656.58128144217881,2.2903225421905518
-655.361995407422,0.29032257199287415
-654.14294865453667,2
-652.9241411338171,1.4193547964096069
-651.7055727955867,0.70967739820480347
-650.48724359018706,1.7096774578094482
-649.26915346794885,1.0322580337524414
-648.05130237924277,-0.774193525314331
-646.83369027443223,0.41935482621192932
-645.61631710390611,0.12903225421905518
-644.399182818046,1.4516129493713379
-643.18228736727724,2.2903225421905518
-641.96563070201046,0.5161290168762207
-640.74921277268186,0.25806450843811035
-639.53303352973853,0.54838711023330688
-638.31709292363485,1.0645161867141724
-637.101390904847,0.90322577953338623
-635.88592742385481,0.90322577953338623
-634.67070243115631,0.83870965242385864
-633.45571587726045,-0.16129031777381897
-632.240967712687,1.5483870506286621
-631.02645788797054,1.1290322542190552
-629.81218635365985,1.5161290168762207
-628.59815306031123,1.5806452035903931
-627.38435795849182,0.16129031777381897
-626.17080099879786,-0.29032257199287415
-624.95748213181469,-0.12903225421905518
-623.7444013081531,-0.80645161867141724
-622.53155847843846,2.0967741012573242
-621.31895359330338,1.7419354915618896
-620.10658660339141,0.70967739820480347
-618.89445745937155,0.90322577953338623
-617.68256611190191,-0.5161290168762207
-616.47091251167694,2.7741935253143311
-615.2594966093875,-0.54838711023330688
-614.04831835574623,0
-612.83737770146945,0.87096774578094482
-611.62667459729528,1.5806452035903931
-610.41620899397276,1.4516129493713379
-609.20598084225821,-0.32258063554763794
-607.99599009291524,1.6129032373428345
-606.7862366967438,-0.35483869910240173
-605.57672060452933,-0.25806450843811035
-604.36744176707907,2.4516129493713379
-603.15840013522575,0.61290323734283447
-601.9495956597948,1.6129032373428345
-600.74102829162985,1.7096774578094482
-599.53269798159636,2.2903225421905518
-598.32460468055979,0.87096774578094482
-597.11674833940742,0.774193525314331
-595.90912890903019,0.90322577953338623
-594.70174634034447,1.9032257795333862
-593.49460058426666,-0.19354838132858276
-592.28769159173135,1.1290322542190552
-591.08101931368037,0.61290323734283447
-589.87458370107379,0.87096774578094482
-588.66838470488256,1.1935484409332275
-587.46242227609218,1.4193547964096069
-586.25669636569182,-0.12903225421905518
-585.05120692469245,1
-583.8459539041196,-0.32258063554763794
-582.64093725499515,0.67741936445236206
-581.43615692836647,-0.80645161867141724
-580.23161287529365,0.32258063554763794
-579.02730504684951,-0.58064514398574829
-577.82323339410868,2.0967741012573242
-576.61939786817129,2.4193549156188965
-575.41579842013743,-1.8709677457809448
-574.21243500113269,2.5806450843811035
-573.00930756228081,1.8387097120285034
-571.80641605473465,1.7096774578094482
-570.60376042964162,0.774193525314331
-569.40134063817277,0.58064514398574829
-568.19915663151369,0.74193549156188965
-566.9972083608518,2.3870968818664551
-565.79549577739454,0.90322577953338623
-564.594018832353,1.0967742204666138
-563.39277747696906,1.9032257795333862
-562.19177166247209,-0.70967739820480347
-560.99100134013133,-0.38709676265716553
-559.7904664612015,0.48387095332145691
-558.59016697696461,-0.16129031777381897
-557.39010283871175,2.8709676265716553
-556.19027399775041,2.6451613903045654
-554.99068040538987,-0.25806450843811035
-553.79132201296306,1
-552.59219877181022,3.0645160675048828
-551.39331063328973,2.7419354915618896
-550.19465754875273,-0.48387095332145691
-548.99623946958855,1.9032257795333862
-547.79805634717923,0.87096774578094482
-546.60010813293411,-0.38709676265716553
-545.40239477826071,-1.5806452035903931
-544.20491623458474,2.2258064746856689
-543.0076724533501,-0.38709676265716553
-541.81066338600431,1.3548387289047241
-540.6138889840131,-0.70967739820480347
-539.41734919884766,1.3548387289047241
-538.22104398199917,0.32258063554763794
-537.02497328496611,0.61290323734283447
-535.82913705926148,1.3870967626571655
-534.63353525640559,2.1290323734283447
-533.43816782793328,1.3225806951522827
-532.243034725403,0.61290323734283447
-531.04813590036792,0.93548387289047241
-529.85347130440277,0.774193525314331
-528.65904088909519,-0.45161288976669312
-527.46484460603642,-0.74193549156188965
-526.27088240683952,-0.38709676265716553
-525.07715424312846,-0.35483869910240173
-523.88366006653268,0.90322577953338623
-522.69039982870345,0.5161290168762207
-521.49737348129383,-0.61290323734283447
-520.30458097597693,-0.22580644488334656
-519.11202226443311,1
-517.9196972983591,0.48387095332145691
-516.72760602945891,0.74193549156188965
-515.53574840945657,0.64516127109527588
-514.34412439008338,1.6451612710952759
-513.15273392307427,0.32258063554763794
-511.96157696019327,0.64516127109527588
-510.77065345320443,-1.0645161867141724
-509.57996335388816,0.22580644488334656
-508.38950661403396,2.0645160675048828
-507.19928318545135,0.80645161867141724
-506.009293019948,1.9677419662475586
-504.81953606935895,-0.70967739820480347
-503.63001228552639,1.3225806951522827
-502.44072162029261,0.54838711023330688
-501.25166402552895,0.80645161867141724
-500.06283945311225,2.7419354915618896
-498.87424785493022,0.87096774578094482
-497.68588918288151,0.774193525314331
-496.4977633888866,1.8709677457809448
-495.30987042485503,0.29032257199287415
-494.12221024273822,0.29032257199287415
-492.93478279447845,2.1935484409332275
-491.74758803203986,1.5483870506286621
-490.5606259073993,3
-489.37389637252818,-1.1290322542190552
-488.1873993794361,0.032258063554763794
-487.00113488013267,1.9677419662475586
-485.8151028266293,-0.70967739820480347
-484.62930317096834,2.1612904071807861
-483.44373586519578,0.29032257199287415
-482.25840086136122,0
-481.07329811153795,0.70967739820480347
-479.88842756781014,0.70967739820480347
-478.70378918227289,-1.4516129493713379
-477.51938290702128,2.2903225421905518
-476.33520869418317,1
-475.15126649588274,1.6774193048477173
-473.96755626426784,1.0322580337524414
-472.78407795148814,2
-471.60083150970968,1.6774193048477173
-470.41781689110212,0.38709676265716553
-469.23503404786607,2.7419354915618896
-468.05248293220211,0.74193549156188965
-466.87016349631995,1
-465.68807569244927,1.8387097120285034
-464.50621947281616,0.25806450843811035
-463.32459478968667,2.0967741012573242
-462.14320159531053,2.1935484409332275
-460.96203984196472,1.2580645084381104
-459.78110948193535,-0.45161288976669312
-458.6004104675194,0.16129031777381897
-457.419942751023,0.74193549156188965
-456.239706284774,0.64516127109527588
-455.05970102109859,0.032258063554763794
-453.87992691234467,1.3548387289047241
-452.70038391086928,-1.2258064746856689
-451.52107196904217,0.41935482621192932
-450.3419910392422,-0.54838711023330688
-449.16314107386461,-0.25806450843811035
-447.98452202531189,-1.1290322542190552
-446.80613384600474,1.2903225421905518
-445.62797648836386,0.774193525314331
-444.45004990483903,-0.32258063554763794
-443.27235404787461,0.38709676265716553
-442.09488886994041,0.54838711023330688
-440.91765432350803,1.1935484409332275
-439.74065036106913,0.096774190664291382
-438.56387693512079,0.29032257199287415
-437.38733399817647,1.6774193048477173
-436.21102150276056,-0.16129031777381897
-435.03493940140834,1.7419354915618896
-433.859087646666,2.2580645084381104
-432.6834661910907,0.774193525314331
-431.50807498725953,0.19354838132858276
-430.33291398774963,1.3548387289047241
-429.15798314515814,1.3548387289047241
-427.98328241209492,-1.5483870506286621
-426.80881174117167,-0.58064514398574829
-425.63457108502189,-0.35483869910240173
-424.46056039629184,1.8387097120285034
-423.28677962762958,1.5483870506286621
-422.113228731705,1
-420.93990766119532,0
-419.76681636878857,0.74193549156188965
-418.59395480718376,1.5806452035903931
-417.4213229290981,1
-416.24892068725239,-1.3548387289047241
-415.07674803439113,-0.12903225421905518
-413.90480492325514,0.19354838132858276
-412.73309130660527,1.9032257795333862
-411.56160713721874,-1.2903225421905518
-410.39035236788004,1.6774193048477173
-409.21932695137548,0.80645161867141724
-408.04853084052229,3.2258064746856689
-406.87796398813043,0.87096774578094482
-405.70762634704261,0.83870965242385864
-404.53751787009242,-0.22580644488334656
-403.36763851014075,1.1935484409332275
-402.19798822004668,1.6129032373428345
-401.02856695269838,0.35483869910240173
-399.85937466097494,-0.22580644488334656
-398.69041129778452,-0.93548387289047241
-397.52167681603896,2.9032258987426758
-396.353171168661,-0.64516127109527588
-395.18489430858972,-0.93548387289047241
-394.01684618877334,0.67741936445236206
-392.84902676217644,0.38709676265716553
-391.68143598176539,1.3870967626571655
-390.51407380052297,-0.61290323734283447
-389.3469401714483,-0.48387095332145691
-388.18003504754779,1.8387097120285034
-387.01335838184059,1.8387097120285034
-385.84691012736039,0.64516127109527588
-384.6806902371427,-0.80645161867141724
-383.51469866424304,1.0967742204666138
-382.34893536172967,-0.83870965242385864
-381.18340028268176,1.3870967626571655
-380.01809338018211,-0.74193549156188965
-378.85301460734081,0.32258063554763794
-377.68816391725704,-0.064516127109527588
-376.52354126307,0.54838711023330688
-375.35914659789887,1.2580645084381104
-374.19497987490831,0.774193525314331
-373.03104104724662,1.9677419662475586
-371.86733006808936,0.67741936445236206
-370.70384689061211,-0.19354838132858276
-369.54059146801774,0.54838711023330688
-368.37756375350727,1.5483870506286621
-367.21476370029814,-0.774193525314331
-366.05219126162228,1.3225806951522827
-364.8898463907135,1.2580645084381104
-363.72772904083467,-1.3225806951522827
-362.56583916524323,1.1612902879714966
-361.40417671721116,1
-360.24274165003226,-1.3870967626571655
-359.081533917004,2.4516129493713379
-357.92055347143287,2.5806450843811035
-356.75980026664365,0.19354838132858276
-355.599274255972,0.96774190664291382
-354.43897539276259,-1.9032257795333862
-353.27890363036749,0.41935482621192932
-352.11905892216055,-0.35483869910240173
-350.95944122151559,0.83870965242385864
-349.80005048183375,-0.38709676265716553
-348.64088665651252,0.93548387289047241
-347.48194969896213,1.2258064746856689
-346.32323956261644,-0.48387095332145691
-345.1647562009075,2.4516129493713379
-344.00649956729103,-0.41935482621192932
-342.84846961522635,-1.0645161867141724
-341.69066629818008,1.1290322542190552
-340.53308956964429,0.58064514398574829
-339.37573938310743,0.45161288976669312
-338.2186156920834,0.19354838132858276
-337.06171845008612,-0.90322577953338623
-335.90504761065313,2.8387095928192139
-334.74860312731835,0.22580644488334656
-333.59238495363388,0.58064514398574829
-332.43639304317185,2.2580645084381104
-331.28062734950618,1.1290322542190552
-330.12508782622172,0.87096774578094482
-328.96977442692332,1.6774193048477173
-327.81468710521767,4.3225808143615723
-326.65982581472417,2.5483870506286621
-325.50519050908952,0.74193549156188965
-324.35078114194584,1.6129032373428345
-323.19659766695622,0.12903225421905518
-322.042640037791,-0.19354838132858276
-320.88890820812412,0.5161290168762207
-319.73540213164961,1
-318.58212176207417,-0.45161288976669312
-317.42906705310816,1.7741935253143311
-316.2762379584783,0.96774190664291382
-315.12363443192226,0.5161290168762207
-313.9712564271922,-0.83870965242385864
-312.81910389803852,1.6129032373428345
-311.66717679824615,0.70967739820480347
-310.51547508159092,1.2580645084381104
-309.36399870186324,-1.7096774578094482
-308.21274761287896,0.90322577953338623
-307.0617217684503,0.80645161867141724
-305.91092112241131,0.70967739820480347
-304.7603456285924,1.6774193048477173
-303.60999524085491,-0.5161290168762207
-302.45986991305472,1.0967742204666138
-301.30996959907316,0.29032257199287415
-300.16029425279521,0.35483869910240173
-299.01084382811496,1.2580645084381104
-297.86161827894466,2.3548386096954346
-296.71261755920386,1.0645161867141724
-295.563841622823,0.5161290168762207
-294.41529042374714,-1.3870967626571655
-293.26696391593214,0.35483869910240173
-292.11886205333758,2.4838709831237793
-290.97098478994849,1.6129032373428345
-289.82333207974989,-1.7419354915618896
-288.67590387674136,0.35483869910240173
-287.52870013493884,1.1612902879714966
-286.38172080835648,0.774193525314331
-285.23496585103931,0.87096774578094482
-284.08843521702511,2.5483870506286621
-282.94212886037531,1.4838709831237793
-281.79604673515678,0.096774190664291382
-280.65018879545278,1.1935484409332275
-279.50455499534473,0.064516127109527588
-278.359145288945,-0.19354838132858276
-277.21395963036048,0.80645161867141724
-276.06899797372535,1.7096774578094482
-274.92426027316469,1
-273.77974648283453,0.80645161867141724
-272.63545655689268,0
-271.49139044950425,-0.22580644488334656
-270.34754811485618,0.64516127109527588
-269.20392950714449,-0.35483869910240173
-268.06053458056886,2.3225805759429932
-266.91736328934348,1.0322580337524414
-265.77441558769715,1.2258064746856689
-264.631691429875,0.19354838132858276
-263.48919077011669,2.4516129493713379
-262.34691356268377,1.3225806951522827
-261.20485976185773,1.3225806951522827
-260.06302932191284,1.4193547964096069
-258.92142219715242,2.8387095928192139
-257.78003834187439,0.32258063554763794
-256.63887771039481,0.16129031777381897
-255.49794025705341,1.6774193048477173
-254.35722593618084,1.1290322542190552
-253.216734702135,1.4838709831237793
-252.076466509272,2.4193549156188965
-250.93642131196611,0.48387095332145691
-249.7965990646062,-2.1935484409332275
-248.65699972158654,0.67741936445236206
-247.51762323731782,1.7741935253143311
-246.37846956621252,2.1290323734283447
-245.23953866270131,-0.16129031777381897
-244.1008304812367,-0.064516127109527588
-242.96234497625483,1.5161290168762207
-241.8240821022282,2.4516129493713379
-240.68604181363298,4.161290168762207
-239.54822406495077,-0.64516127109527588
-238.41062881068319,2.5806450843811035
-237.27325600533186,1.2258064746856689
-236.13610560342386,2.1290323734283447
-234.99917755948991,-0.83870965242385864
-233.862471828068,1.8387097120285034
-232.72598836371435,0.22580644488334656
-231.58972712099603,1.0967742204666138
-230.45368805447833,2.5161290168762207
-229.3178711187611,3.8387095928192139
-228.18227626843509,0.58064514398574829
-227.04690345811105,2.0645160675048828
-225.91175264241065,3.2580645084381104
-224.77682377596102,1.0645161867141724
-223.64211681341294,2.1290323734283447
-222.507631709419,4.161290168762207
-221.37336841863544,-0.90322577953338623
-220.2393268957494,3
-219.10550709544077,3.2903225421905518
-217.97190897241308,-0.16129031777381897
-216.83853248137348,0.64516127109527588
-215.70537757704551,1.4838709831237793
-214.57244421415817,2.1612904071807861
-213.43973234745863,3.1935484409332275
-212.3072419316959,1.4838709831237793
-211.1749729216408,2.5161290168762207
-210.042925272066,2.4516129493713379
-208.91109893776047,1.1290322542190552
-207.77949387352419,1.6129032373428345
-206.64811003416798,3.9354839324951172
-205.5169473745118,3.6451613903045654
-204.38600584938649,2.0967741012573242
-203.25528541363383,2.0322580337524414
-202.12478602211559,3.4193549156188965
-200.99450762968627,2.1290323734283447
-199.86445019123312,3.8387095928192139
-198.73461366164156,3.0322580337524414
-197.60499799580612,1.8709677457809448
-196.47560314863586,2.9354839324951172
-195.34642907505804,3.5806450843811035
-194.21747572999993,1.2258064746856689
-193.0887430684088,2.8064515590667725
-191.96023104523192,3.5806450843811035
-190.83193961544202,1.8387097120285034
-189.70386873401003,2.6451613903045654
-188.57601835592868,2.6451613903045654
-187.44838843618891,3.6129031181335449
-186.32097892980892,2.1290323734283447
-185.19378979179783,3.0645160675048828
-184.06682097719931,4.0322580337524414
-182.94007244104978,2.9354839324951172
-181.81354413840563,3.9032258987426758
-180.68723602432692,2.3870968818664551
-179.56114805389007,3.7741935253143311
-178.43528018218967,4.0967741012573242
-177.30963236431307,2.3225805759429932
-176.18420455537307,3.6451613903045654
-175.05899671049156,3.3548386096954346
-173.93400878479952,5.3225808143615723
-172.8092407334334,6
-171.68469251155148,5
-170.56036407431748,6.9354839324951172
-169.43625537690059,6.5806450843811035
-168.31236637449183,4.6774191856384277
-167.18869702228221,5.8064517974853516
-166.06524727548822,3.9354839324951172
-164.94201708932451,4.2903227806091309
-163.81900641901848,7.7419352531433105
-162.69621521981026,5.8064517974853516
-161.57364344695634,7.6129031181335449
-160.45129105571505,6.1935482025146484
-159.32915800136652,7.9677419662475586
-158.20724423918546,6.8709678649902344
-157.08554972447382,6.7096772193908691
-155.96407441253541,5.5483870506286621
-154.84281825868857,5.0645160675048828
-153.72178121826437,8.8709678649902344
-152.60096324659753,6.5483870506286621
-151.48036429904278,6.7419352531433105
-150.35998433095847,7.0645160675048828
-149.23982329771206,8.161290168762207
-148.11988115469831,7.838709831237793
-147.0001578572992,6.3548388481140137
-145.88065336092768,9.3870964050292969
-144.76136762099122,9.5161294937133789
-143.64230059293004,9.7419357299804688
-142.5234522321698,9.161290168762207
-141.40482249415982,8.6451616287231445
-140.28641133436759,8.45161247253418
-139.16821870825697,9.9677419662475586
-138.05024457131003,11.322580337524414
-136.93248887901791,12.258064270019531
-135.81495158688631,10.580645561218262
-134.69763265042639,11.903225898742676
-133.58053202516567,12.612903594970703
-132.46364966663896,10.967741966247559
-131.34698553039198,14.032258033752441
-130.23053957198317,12.870967864990234
-129.11431174697645,17.354839324951172
-127.99830201095756,16.258064270019531
-126.8825103195104,17.838708877563477
-125.76693662824073,16.677419662475586
-124.65158089275792,19.870967864990234
-123.53644306868227,21.580644607543945
-122.42152311165228,20.54838752746582
-121.30682097731187,21.870967864990234
-120.19233662130864,21.161291122436523
-119.07806999931199,23.709676742553711
-117.96402106700589,24
-116.85018978006883,23.677419662475586
-115.73657609419934,24.774192810058594
-114.62317996511774,26.032258987426758
-113.51000134852802,27.516128540039063
-112.39704020017234,27.806451797485352
-111.28429647578741,31.096775054931641
-110.17177013112814,31.774192810058594
-109.05946112195488,31.225807189941406
-107.94736940404619,32.3870964050293
-106.83549493318606,36.290321350097656
-105.72383766516577,35
-104.612397555793,41.645160675048828
-103.50117456088628,41.548385620117188
-102.39016863627148,44.129032135009766
-101.27937973778899,46.225807189941406
-100.16880782129374,46.709678649902344
-99.058452842637053,49.870967864990234
-97.9483147576957,52.903224945068359
-96.838393522348269,56.6129035949707
-95.728689092489731,61.193550109863281
-94.6192014240205,63.354839324951172
-93.509930472861015,68.548385620117188
-92.400876194924422,71.677421569824219
-91.2920385461548,78.677421569824219
-90.183417482501682,81.516128540039063
-89.075012959910964,82.032257080078125
-87.9668249343631,89.7741928100586
-86.85885336182946,89.161293029785156
-85.751098198299587,92.032257080078125
-84.643559399773949,88.548385620117188
-83.536236922265743,90.290321350097656
-82.429130721789988,86.032257080078125
-81.322240754388986,87.258064270019531
-80.215566976095943,89.2258071899414
-79.109109342967713,89.6451644897461
-78.002867811070246,93.483871459960938
-76.896842336478585,97.096771240234375
-75.791032875273231,100.48387145996094
-74.685439383558332,102.09677124023438
-73.580061817436217,105.93548583984375
-72.474900133025585,113.61289978027344
-71.3699542864506,117.54838562011719
-70.265224233859044,125.90322875976563
-69.160709931396923,131.09677124023438
-68.05641133521749,144.51612854003906
-66.952328401503109,145.51612854003906
-65.848461086430689,143.8709716796875
-64.7448093461935,145.22579956054688
-63.641373136992115,143.58064270019531
-62.538152415045261,142.29032897949219
-61.435147136569867,146
-60.332357257806507,147.45161437988281
-59.229782735001208,150.38710021972656
-58.127423524405458,160.61289978027344
-57.025279582292569,170.16128540039063
-55.923350864935855,182.32258605957031
-54.821637328623183,185.8709716796875
-53.720138929656969,182.35484313964844
-52.618855624345088,172.77420043945313
-51.517787369006328,161.77420043945313
-50.41693411997403,152.83871459960938
-49.316295833586992,154.51612854003906
-48.215872466198562,150.74192810058594
-47.115663974169365,166.41935729980469
-46.015670313878218,192.16128540039063
-44.915891441702115,238.70967102050781
-43.816327314034424,281.93548583984375
-42.716977887288522,303.8709716796875
-41.617843117875964,315.19354248046875
-40.518922962221041,331.83871459960938
-39.420217376760775,374.45159912109375
-38.3217263179431,451.32257080078125
-37.223449742226876,561.32257080078125
-36.125387606081858,660.6451416015625
-35.027539865983272,669.06451416015625
-33.929906478420889,651.3548583984375
-32.832487399897218,659.258056640625
-31.735282586923859,659.29034423828125
-30.638291996019689,614.6451416015625
-29.541515583716318,548.6129150390625
-28.44495330655991,501.90322875976563
-27.348605121096625,473.32257080078125
-26.252470983896274,429.22579956054688
-25.156550851528664,407.77420043945313
-24.060844680578157,389.64517211914063
-22.965352427649123,365.19354248046875
-21.870074049333198,352.54840087890625
-20.775009502252942,333.93548583984375
-19.680158743038191,329
-18.585521728322419,314.58065795898438
-17.491098414751832,297.80645751953125
-16.396888758989007,286.35482788085938
-15.302892717698342,278.16128540039063
-14.209110247560602,273.32257080078125
-13.115541305269289,273.35482788085938
-12.022185847514265,275.29031372070313
-10.929043831019953,275.77420043945313
-9.8361152124980435,277.77420043945313
-8.7433999486820539,272.54840087890625
-7.65089799631096,263.96774291992188
-6.5586093121492013,244.1290283203125
-5.466533852946668,175.09677124023438
-4.3746715754823526,61.548385620117188
-3.2830224365425238,137.03225708007813
-2.1915863929170882,431.80645751953125
-1.1003634014141426,229.70967102050781
-0.0093534188454214018,108.64516448974609
1.0814435979573318,58.193550109863281
2.1720276921641926,12.096774101257324
3.2623989069197705,12.387096405029297
4.35255728537777,62.935482025146484
5.4425028706609737,197.06451416015625
6.5322357058976195,268.90322875976563
7.6217558341977565,259.258056640625
8.7110632986587,267.96774291992188
9.8001581423777679,265.35482788085938
10.889040408424989,271.22579956054688
11.977710139883129,282.3870849609375
13.06616737980039,282.64517211914063
14.154412171230433,292.51614379882813
15.242444557208728,305.16128540039063
16.330264580770745,315.54840087890625
17.417872284928308,335.29031372070313
18.50526771269142,357.64517211914063
19.592450907051898,371.06451416015625
20.679421910997917,388.22579956054688
21.766180767510377,410.80645751953125
22.852727519550172,431.8709716796875
23.939062210076372,458.1290283203125
25.025184882029862,483.06451416015625
26.111095578347886,513.225830078125
27.196794341953137,548.54840087890625
28.28228121576285,593.0968017578125
29.367556242677892,643.51611328125
30.452619465586395,706.70965576171875
31.537470927380127,746.258056640625
32.622110670923576,736.3870849609375
33.706538739086682,720.741943359375
34.790755174713922,735.32257080078125
35.874760020649774,704.9031982421875
36.95855331972416,594.1290283203125
38.04213511476155,477.06451416015625
39.125505448568219,406.35482788085938
40.208664363943171,365.03225708007813
41.291611903676312,349.258056640625
42.37434811055391,342.77420043945313
43.45687302733495,318.1290283203125
44.539186696785691,269.29031372070313
45.621289161648747,223.8709716796875
46.703180464664911,195.64515686035156
47.784860648560425,186.58064270019531
48.866329756052437,186.19354248046875
49.947587829856275,192.54838562011719
51.028634912656344,203
52.109471047146144,218.03225708007813
53.190096275999167,227.8709716796875
54.270510641885267,232.80645751953125
55.350714187454287,226.51612854003906
56.430706955356072,214.29032897949219
57.5104889882241,203.58064270019531
58.590060328684558,195
59.669421019347283,189
60.7485711028221,183.45161437988281
61.82751062170064,178.25807189941406
62.906239618561813,181.09677124023438
63.984758135989978,179.93548583984375
65.063066216536754,180.64515686035156
66.141163902764674,185.48387145996094
67.219051237207168,184.61289978027344
68.29672826240494,177.35484313964844
69.374195020876869,163.16128540039063
70.4514515551291,154.22579956054688
71.528497907673227,148.64515686035156
72.605334120997213,142.54838562011719
73.681960237579915,137.80645751953125
74.758376299892916,134.48387145996094
75.8345823503987,129.80645751953125
76.910578431545218,129
77.986364585774936,124.64516448974609
79.061940855521243,118.74193572998047
80.137307283193877,119.96774291992188
81.212463911211671,119.58064270019531
82.28741078197163,118.80644989013672
83.362147937861664,120.41935729980469
84.436675421262407,126.09677124023438
85.51099327454358,127.41935729980469
86.58510154006035,127
87.659000260162429,120.54838562011719
88.7326894771868,118.51612854003906
89.80616923346679,114.29032135009766
90.879439571315743,107.16129302978516
91.952500533045168,102.06451416015625
93.025352160946568,96.6451644897461
94.097994497313266,92.612899780273438
95.170427584422214,88.290321350097656
96.242651464532173,80.903228759765625
97.314666179911,77.903228759765625
98.386471772804725,75.419357299804688
99.458068285441186,68.161293029785156
100.52945576005368,68.6451644897461
101.60063423885185,68.06451416015625
102.67160376405081,61.258064270019531
103.74236437784384,58.322582244873047
104.81291612240966,58.096775054931641
105.88325903993427,55.225807189941406
106.95339317257822,52.838710784912109
108.02331856250021,49.129032135009766
109.09303525183896,47.709678649902344
110.16254328273681,44.838710784912109
111.23184269731064,46.096775054931641
112.30093353768643,43.419353485107422
113.36981584596106,39.838710784912109
114.43848966423138,40.516128540039063
115.50695503458155,40.806449890136719
116.57521199908842,35
117.64326059981613,35.419353485107422
118.71110087881789,33.161289215087891
119.77873287813418,32.032257080078125
120.8461566398073,35.258064270019531
121.91337220585774,33.290321350097656
122.98037961829687,31.258064270019531
124.04717891912696,31.838708877563477
125.11377015035214,27.032258987426758
126.18015335394557,26.677419662475586
127.24632857188772,23.741935729980469
128.31229584614084,26.709676742553711
129.37805521865448,24.354839324951172
130.44360673138181,21.870967864990234
131.50895042624506,21.935483932495117
132.57408634517378,21.677419662475586
133.63901453007747,20.354839324951172
134.70373502286202,20.161291122436523
135.76824786542602,17.935483932495117
136.83255309964807,17.774192810058594
137.89665076739402,16.935483932495117
138.96054091054066,19.290323257446289
140.024223570932,16.45161247253418
141.08769879041392,15
142.1509666108177,15.516129493713379
143.214027073971,14.258064270019531
144.27688022168513,15.258064270019531
145.33952609575863,13.709677696228027
146.40196473799006,12.677419662475586
147.46419619015978,12.096774101257324
148.52622049404272,14.354838371276855
149.58803769140104,11.838709831237793
150.64964782398602,13.45161247253418
151.71105093354345,13.096774101257324
152.77224706180459,14.419354438781738
153.83323625049343,13.806451797485352
154.89401854132302,12.870967864990234
155.95459397599734,14.064516067504883
157.01496259620762,12.709677696228027
158.07512444363783,13.935483932495117
159.13507955996283,11.806451797485352
160.19482798684112,13.193548202514648
161.25436976592937,13.032258033752441
162.31370493887334,11.322580337524414
163.37283354730243,11.45161247253418
164.4317556328424,13.677419662475586
165.49047123710079,12.387096405029297
166.54898040169246,11.677419662475586
167.60728316820132,9.0967741012573242
168.66537957821311,8.22580623626709
169.72326967330264,8.22580623626709
170.780953495032,8.6774196624755859
171.83843108495967,7.7096772193908691
172.89570248462041,6.5806450843811035
173.95276773555634,7.161290168762207
175.00962687929132,6.4193549156188965
176.06627995733652,7.3225808143615723
177.12272701119764,6.9677419662475586
178.178968082364,7.9354839324951172
179.23500321232495,6.9354839324951172
180.2908324425498,7.3548388481140137
181.34645581451332,4.838709831237793
182.40187336966119,6.3870968818664551
183.45708514943908,3.6129031181335449
184.51209119528539,6.5161290168762207
185.56689154862397,5.4193549156188965
186.62148625086775,7.6129031181335449
187.67587534342056,5.0322580337524414
188.7300588676826,5.4193549156188965
189.78403686503225,5.4838709831237793
190.83780937685697,6.9032258987426758
191.89137644451148,4.0645160675048828
192.94473810935415,6.9354839324951172
193.9978944127306,5
195.050845395981,6.9677419662475586
196.10359110042373,7.3225808143615723
197.15613156738254,5.1935482025146484
198.20846683816126,4.5161290168762207
199.26059695405638,5.1290321350097656
200.31252195635352,6.1935482025146484
201.36424188632918,5.4516129493713379
202.4157567852526,5.6774191856384277
203.4670666943839,3.9677419662475586
204.51817165496323,6.3548388481140137
205.56907170823069,4.3548388481140137
206.61976689541734,5.5161290168762207
207.670257257736,3.9677419662475586
208.72054283640318,3.7419354915618896
209.77062367260442,4.6451611518859863
210.820499807538,5.3548388481140137
211.8701712823804,4.161290168762207
212.91963813829716,4.2580647468566895
213.96890041645383,4.9354839324951172
215.01795815799051,5.0322580337524414
216.06681140405453,4.3870968818664551
217.11546019577327,4.9032258987426758
218.16390457426678,5.1290321350097656
219.2121445806406,4.1290321350097656
220.26018025599478,4.7419352531433105
221.30801164143122,6.1935482025146484
222.35563877801724,5.1935482025146484
223.40306170683289,4.6451611518859863
224.45028046893094,3.4193549156188965
225.49729510536963,2.9032258987426758
226.54410565718536,3.5161290168762207
227.59071216541633,3.7741935253143311
228.6371146710826,5.22580623626709
229.68331321518963,1.9677419662475586
230.72930783874654,4.0645160675048828
231.77509858274425,3.1612904071807861
232.82068548816642,2.8709676265716553
233.86606859598396,3.4838709831237793
234.91124794716416,3.9354839324951172
235.95622358265609,1.0967742204666138
237.00099554340886,2.7741935253143311
238.04556387035336,5.161290168762207
239.08992860441322,2.6774194240570068
240.13408978650659,3.2903225421905518
241.1780474575371,2.5483870506286621
242.22180165840109,1.3870967626571655
243.26535242998034,3.7096774578094482
244.30869981315118,3.8064515590667725
245.35184384878812,3
246.39478457773839,2.8387095928192139
247.43752204085104,1.2258064746856689
248.48005627896237,1.5161290168762207
249.52238733290687,2.3548386096954346
250.56451524348995,2.7419354915618896
251.60644005152972,2.2903225421905518
252.64816179782065,2.3548386096954346
253.68968052315358,0.64516127109527588
254.730996268303,0.774193525314331
255.77210907403787,2.0645160675048828
256.81301898112542,1
257.85372603030919,2.9677419662475586
258.89423026233089,1.3225806951522827
259.93453171791953,2.1935484409332275
260.9746304377968,3.6451613903045654
262.01452646267171,2.2258064746856689
263.05421983325323,1.9677419662475586
264.09371059022669,1.8387097120285034
265.13299877427562,0.74193549156188965
266.1720844260708,1.6129032373428345
267.21096758627755,0.032258063554763794
268.24964829555029,2
269.2881265945307,2.2580645084381104
270.32640252385318,1.6774193048477173
271.3644761241394,2.5483870506286621
272.40234743601104,0.61290323734283447
273.44001650006248,1.8064515590667725
274.47748335689721,2.1935484409332275
275.51474804710051,3.2580645084381104
276.55181061124858,2.0645160675048828
277.58867108990307,3.3870968818664551
278.6253295236238,-0.48387095332145691
279.66178595296151,1.8064515590667725
280.69804041844691,1.7096774578094482
281.73409296061618,3.4838709831237793
282.76994361998004,2
283.805592437051,1.8387097120285034
284.84103945233073,2.9677419662475586
285.87628470630625,3.3225805759429932
286.91132823945736,1.6451612710952759
287.94617009225294,1.7419354915618896
288.98081030516005,1.6774193048477173
290.01524891862209,4.0322580337524414
291.04948597308794,2.0322580337524414
292.08352150898645,2.0322580337524414
293.11735556673921,1.2903225421905518
294.1509881867587,4.6774191856384277
295.18441940945377,0.54838711023330688
296.21764927521144,2.7096774578094482
297.25067782442056,0.45161288976669312
298.2835050974536,2.5161290168762207
299.31613113467938,2.2580645084381104
300.34855597644855,1.4516129493713379
301.38077966311357,1.9677419662475586
302.41280223500326,3.0645160675048828
303.44462373245005,0.25806450843811035
304.47624419576641,1.0645161867141724
305.50766366526477,3.5483870506286621
306.53888218124666,0.32258063554763794
307.56989978399361,1.7741935253143311
308.60071651379076,4.3548388481140137
309.63133241090145,-0.096774190664291382
310.66174751559265,4.0967741012573242
311.69196186811314,0.61290323734283447
312.72197550869896,2.2903225421905518
313.7517884775898,3.0645160675048828
314.78140081500351,0.80645161867141724
315.81081256115249,5.2903227806091309
316.84002375624368,2.0645160675048828
317.86903444046584,2.3225805759429932
318.89784465400771,2.5483870506286621
319.92645443703987,1.3870967626571655
320.95486382973104,2.2258064746856689
321.98307287223361,5.6774191856384277
323.01108160469812,5.8064517974853516
324.03889006725694,5.6451611518859863
325.06649830004426,5.8064517974853516
326.09390634316696,4.9354839324951172
327.12111423674287,4.5483870506286621
328.14812202086614,4
329.1749297356273,5.7419352531433105
330.20153742110597,6.5161290168762207
331.22794511737266,3.5806450843811035
332.25415286449424,2.3225805759429932
333.28016070251033,3.2580645084381104
334.30596867147324,1.8064515590667725
335.33157681140983,1
336.356985162347,1.7741935253143311
337.38219376429515,1.4516129493713379
338.40720265726304,0.032258063554763794
339.4320118812393,0.64516127109527588
340.45662147621442,-0.12903225421905518
341.48103148216251,0.83870965242385864
342.50524193905039,0.93548387289047241
343.52925288683764,3.1612904071807861
344.55306436546562,1.9677419662475586
345.57667641487933,-0.35483869910240173
346.60008907500196,2.8064515590667725
347.62330238575669,0.25806450843811035
348.6463163870576,1.9032257795333862
349.66913111879694,1.6129032373428345
350.691746620867,1.8064515590667725
351.71416293315815,-0.25806450843811035
352.73638009553179,1
353.75839814785832,2.1935484409332275
354.78021712998816,0.48387095332145691
355.80183708176628,0.38709676265716553
356.82325804302855,0.064516127109527588
357.84448005359627,1.3225806951522827
358.86550315329259,0.19354838132858276
359.88632738192064,1.0645161867141724
360.90695277927625,1.3870967626571655
361.9273793851462,1.0322580337524414
362.94760723931722,0.19354838132858276
363.9676363815488,2.6451613903045654
364.98746685160586,0.90322577953338623
366.00709868923332,0.19354838132858276
367.02653193418337,2.9677419662475586
368.0457666261791,0.90322577953338623
369.06480280494725,0.58064514398574829
370.08364051019453,2.0967741012573242
371.10227978162948,2.3225805759429932
372.12072065894608,1.9677419662475586
373.13896318183288,1.3548387289047241
374.15700738995474,0.87096774578094482
375.17485332298929,1.9677419662475586
376.1925010205905,0.16129031777381897
377.20995052240505,3.5161290168762207
378.22720186806691,0.48387095332145691
379.24425509721186,1.6451612710952759
380.26111024945749,1.0322580337524414
381.27776736441228,0.35483869910240173
382.29422648167929,2.1935484409332275
383.31048764085062,1.2903225421905518
384.3265508815075,1.1935484409332275
385.34241624322385,1.1290322542190552
386.35808376556452,2.8387095928192139
387.37355348807978,0.29032257199287415
388.38882545031993,1.2903225421905518
389.40389969181524,2.6129031181335449
390.41877625210145,2.1935484409332275
391.433455170687,0.25806450843811035
392.447936487084,0.90322577953338623
393.46222024079,1.6451612710952759
394.476306471297,0.74193549156188965
395.49019521808259,-1.0967742204666138
396.50388652061883,1.1290322542190552
397.51738041836506,0.48387095332145691
398.530676950777,-0.38709676265716553
399.54377615729936,1.8387097120285034
400.55667807736063,3.6451613903045654
401.5693827503892,0
402.5818902157971,1.3548387289047241
403.59420051299639,1.7096774578094482
404.60631368137911,0.93548387289047241
405.61822976033545,1.2580645084381104
406.62994878923928,1.5806452035903931
407.64147080746443,1.0322580337524414
408.6527958543702,1.5483870506286621
409.66392396930314,1.3870967626571655
410.67485519161164,-0.41935482621192932
411.68558956062407,0.25806450843811035
412.69612711565969,-0.45161288976669312
413.70646789603961,0.25806450843811035
414.71661194106127,3.1290323734283447
415.72655929002758,0
416.73630998222143,0.93548387289047241
417.745864056913,3.3225805759429932
418.75522155338149,1.0645161867141724
419.76438251087711,0.67741936445236206
420.77334696865182,1.8709677457809448
421.78211496594486,0.74193549156188965
422.79068654198818,1.1612902879714966
423.79906173600284,-0.774193525314331
424.80724058720261,0.83870965242385864
425.81522313478672,2.1935484409332275
426.82300941795256,2.6451613903045654
427.83059947589027,1.1612902879714966
428.8379933477645,0.5161290168762207
429.84519107274537,3.5483870506286621
430.85219268999572,1.5806452035903931
431.85899823866021,2
432.86560775787439,0.54838711023330688
433.87202128677382,-0.58064514398574829
434.8782388644795,0.96774190664291382
435.88426053009243,0.96774190664291382
436.89008632272635,1.2580645084381104
437.89571628147496,-0.67741936445236206
438.9011504454138,3.1290323734283447
439.90638885362387,0.54838711023330688
440.91143154516431,0.90322577953338623
441.91627855910519,0.41935482621192932
442.92092993447841,0.32258063554763794
443.92538571033219,2.0645160675048828
444.92964592569297,3.2580645084381104
445.93371061957805,-2.9032258987426758
446.93757983100477,0.93548387289047241
447.94125359896861,0.90322577953338623
448.94473196246508,1.5161290168762207
449.94801496047694,0.70967739820480347
450.95110263197967,1.2258064746856689
451.953995015936,2.3225805759429932
452.95669215130511,-0.83870965242385864
453.95919407703332,1.5806452035903931
454.96150083205976,0.45161288976669312
455.96361245530716,2.5483870506286621
456.96552898570553,0.70967739820480347
457.96725046215579,3
458.96877692356611,2.7419354915618896
459.97010840882649,0.48387095332145691
460.971244956816,-1.1612902879714966
461.972186606421,1.1935484409332275
462.97293339649332,0.96774190664291382
463.97348536589743,1.4193547964096069
464.97384255347788,0.41935482621192932
465.97400499807009,2.3870968818664551
466.97397273850584,0.12903225421905518
467.97374581360418,2.2258064746856689
468.97332426217872,3.1612904071807861
469.9727081230285,1.4193547964096069
470.97189743494346,2.5806450843811035
471.97089223671173,1.4193547964096069
472.96969256710508,1.2258064746856689
473.96829846489163,3.6451613903045654
474.96670996882312,1.5161290168762207
475.96492711765313,2.2903225421905518
476.96294995011704,1.7741935253143311
477.96077850494112,1.2903225421905518
478.958412820848,2.3870968818664551
479.95585293654949,1.3870967626571655
480.95309889074997,3.9354839324951172
481.95015072213755,0.29032257199287415
482.94700846940214,3.7096774578094482
483.94367217121362,-0.58064514398574829
484.94014186624008,3.0645160675048828
485.93641759313687,1.3870967626571655
486.93249939055568,2.3548386096954346
487.92838729713003,0.96774190664291382
488.92408135149708,1.7096774578094482
489.91958159227397,2.3870968818664551
490.91488805807057,-0.32258063554763794
491.9100007874913,1.0322580337524414
492.90491981913328,2.7096774578094482
493.89964519157547,2.1290323734283447
494.89417694339863,1.0645161867141724
495.88851511317262,1.6129032373428345
496.88265973944726,1.8064515590667725
497.87661086077605,-0.41935482621192932
498.87036851569792,0.64516127109527588
499.86393274274451,2.9677419662475586
500.8573035804402,1.7741935253143311
501.85048106729482,0.54838711023330688
502.84346524181092,1.7741935253143311
503.83625614248922,1.2903225421905518
504.82885380781045,2.8709676265716553
505.82125827625532,1.4838709831237793
506.81346958628819,1.5806452035903931
507.80548777637341,3.7419354915618896
508.79731288496077,0.064516127109527588
509.78894495048735,1
510.7803840113902,0.12903225421905518
511.77163010608638,1.4193547964096069
512.7626832729984,1.8709677457809448
513.753543550527,1.3548387289047241
514.74421097707091,0.48387095332145691
515.73468559101457,1
516.72496743074043,2.1935484409332275
517.71505653461827,1.1290322542190552
518.7049529410051,-0.74193549156188965
519.69465668825978,3.3870968818664551
520.68416781471751,0.41935482621192932
521.67348635871713,1.1290322542190552
522.6626123585811,1.5483870506286621
523.6515458526319,-0.61290323734283447
524.64028687916834,0.93548387289047241
525.62883547649471,2.3870968818664551
526.61719168289892,1.9354838132858276
527.60535553665977,1.1612902879714966
528.59332707605427,1.3225806951522827
529.58110633933939,1.2580645084381104
530.5686933647703,1.3548387289047241
531.55608819059671,3.2258064746856689
532.543290855052,-0.32258063554763794
533.53030139635848,-0.19354838132858276
534.517119852746,3.6451613903045654
535.50374626241319,1.0967742204666138
536.49018066356621,1.3870967626571655
537.47642309439289,1.5483870506286621
538.46247359308109,-0.67741936445236206
539.44833219780412,1.9032257795333862
540.43399894672075,0
541.419473877997,1.5806452035903931
542.40475702977346,0.93548387289047241
543.38984844019069,-0.58064514398574829
544.37474814737834,-0.12903225421905518
545.35945618945516,1.5806452035903931
546.3439726045417,1.1935484409332275
547.32829743073307,0.64516127109527588
548.31243070612072,-0.48387095332145691
549.29637246879975,1.6451612710952759
550.28012275683977,-0.5161290168762207
551.26368160831407,1.7741935253143311
552.24704906127408,1.0645161867141724
553.23022515377488,2.0967741012573242
554.21320992386063,-0.90322577953338623
555.19600340955367,2.1935484409332275
556.1786056488927,0.80645161867141724
557.16101667987823,2.5806450843811035
558.14323654052532,1.1290322542190552
559.12526526882721,0.90322577953338623
560.10710290277348,1.1290322542190552
561.088749480341,1
562.07020503950662,0.48387095332145691
563.0514696182272,1.4838709831237793
564.03254325445778,0.48387095332145691
565.01342598614065,3.1612904071807861
565.99411785121265,0.22580644488334656
566.97461888760517,-1.1290322542190552
567.9549291332296,-0.83870965242385864
568.93504862599912,0.35483869910240173
569.91497740381055,1.9032257795333862
570.89471550455892,1.6451612710952759
571.8742629661283,2.8387095928192139
572.85361982638642,3.0322580337524414
573.83278612320282,1.5161290168762207
574.81176189443613,-0.12903225421905518
575.79054717792678,0.45161288976669312
576.76914201152067,2.1612904071807861
577.747546433051,0.16129031777381897
578.72576048033079,1.8387097120285034
579.70378419117333,1.0322580337524414
580.6816176033899,1.8064515590667725
581.65926075476636,2.3225805759429932
582.63671368309952,-1.0645161867141724
583.613976426157,1.2903225421905518
584.59104902171384,1.4838709831237793
585.56793150752856,2.5161290168762207
586.54462392135247,2.0322580337524414
587.52112630092961,2.0645160675048828
588.49743868399491,0.58064514398574829
589.473561108267,1.6129032373428345
590.44949361146973,-2
591.42523623130546,1.6774193048477173
592.40078900547815,1.8064515590667725
593.37615197168088,1.4193547964096069
594.35132516758313,0.67741936445236206
595.32630863086888,2.0645160675048828
596.30110239920032,0.83870965242385864
597.27570651022688,0.96774190664291382
598.25012100160166,0.93548387289047241
599.22434591095953,0.096774190664291382
600.19838127593539,3.2903225421905518
601.17222713414048,1.4516129493713379
602.145883523197,1.2903225421905518
603.11935048069972,1.9677419662475586
604.09262804424907,-0.45161288976669312
605.06571625142715,2.2258064746856689
606.03861513981246,0.774193525314331
607.01132474697624,-0.93548387289047241
607.98384511047152,-0.064516127109527588
608.95617626785679,0.48387095332145691
609.92831825667054,2.0967741012573242
610.90027111445124,2.7096774578094482
611.87203487871375,-0.22580644488334656
612.84360958698562,-0.41935482621192932
613.81499527677443,1.8064515590667725
614.78619198556953,1.3548387289047241
615.75719975086758,1.8709677457809448
616.7280186101525,-0.45161288976669312
617.69864860089183,2.7096774578094482
618.66908976055493,1.6451612710952759
619.63934212659842,0.25806450843811035
620.60940573646621,1.0322580337524414
621.57928062759311,2.3548386096954346
622.54896683741936,0.80645161867141724
623.51846440335976,2.1290323734283447
624.48777336282728,1.4516129493713379
625.45689375322763,2.5483870506286621
626.42582561195377,0.16129031777381897
627.394568976395,1.1290322542190552
628.363123883928,0.32258063554763794
629.331490371922,2.2903225421905518
630.299668477739,-1.9032257795333862
631.26765823873393,1.9354838132858276
632.23545969224324,1.0322580337524414
633.20307287561081,1.1290322542190552
634.170497826155,2.5161290168762207
635.137734581198,1.5161290168762207
636.10478317805246,1.6129032373428345
637.0716436540115,0.93548387289047241
638.03831604637162,1.8064515590667725
639.004800392413,0.67741936445236206
639.97109672941588,2.4193549156188965
640.9372050946422,0.45161288976669312
641.90312552535215,1.5806452035903931
642.86885805879137,1.5483870506286621
643.83440273220367,1.1612902879714966
644.79975958282012,0.67741936445236206
645.76492864786451,1.8709677457809448
646.72990996454973,0.29032257199287415
647.69470357008322,0.22580644488334656
648.6593095016633,2.1290323734283447
649.6237277964774,0.19354838132858276
650.58795849170929,1.5806452035903931
651.5520016245282,0.48387095332145691
652.51585723209973,2.6129031181335449
653.4795253515731,1.1612902879714966
654.44300602009935,1.6774193048477173
655.406299274815,2
656.3694051528546,0.54838711023330688
657.33232369132747,2.0967741012573242
658.29505492735188,2.3548386096954346
659.25759889803339,0.96774190664291382
660.21995564046847,1
661.182125191739,0.96774190664291382
662.14410758892154,0.64516127109527588
663.10590286909064,-0.064516127109527588
664.067511069301,1.0967742204666138
665.02893222660714,0.93548387289047241
665.99016637806017,1.7096774578094482
666.95121356068557,3.2903225421905518
667.91207381151617,1
668.87274716756838,0.80645161867141724
669.83323366584955,1.1290322542190552
670.7935333433652,1.9354838132858276
671.75364623710266,2.4193549156188965
672.71357238405108,3.4193549156188965
673.673311821185,2.4193549156188965
674.63286458547191,-0.45161288976669312
675.59223071386987,0.41935482621192932
676.55141024332806,3
677.51040321079017,1.3225806951522827
678.46920965318714,-0.32258063554763794
679.42782960744807,-0.48387095332145691
680.38626311048392,4.1290321350097656
681.34451019920562,-0.16129031777381897
682.30257091051317,1.0322580337524414
683.26044528129387,2.8387095928192139
684.21813334843318,1
685.17563514880567,1.9677419662475586
686.13295071927132,1.4193547964096069
687.0900800966956,-1.7419354915618896
688.04702331792032,2.2258064746856689
689.00378041978729,1.0645161867141724
689.96035143912923,0.096774190664291382
