-773.51195264083617,-1
-772.26970635356884,2.3448276519775391
-771.02770412717837,0.72413790225982666
-769.785945910744,1.6206896305084229
-768.5444316533667,-1.3793103694915771
-767.30316130416213,0.82758623361587524
-766.06213481226041,0.68965518474578857
-764.821352126799,0.72413790225982666
-763.58081319693338,2.7586207389831543
-762.34051797182656,0.41379311680793762
-761.10046640066685,-1.4137930870056152
-759.86065843263532,0.24137930572032928
-758.62109401694215,1.2413792610168457
-757.38177310281208,-0.068965516984462738
-756.14269563946254,-1.1724138259887695
-754.90386157614739,0.24137930572032928
-753.66527086213136,-1.1034482717514038
-752.42692344666466,-0.96551722288131714
-751.188819279052,-0.24137930572032928
-749.95095830857281,0.10344827920198441
-748.71334048454628,0.65517240762710571
-747.47596575629541,0.72413790225982666
-746.23883407314679,-2.1724138259887695
-745.00194538445612,1.1724138259887695
-743.76529963958274,0.37931033968925476
-742.52889678790052,0.79310345649719238
-741.29273677879792,-0.79310345649719238
-740.05681956167064,1
-738.82114508593622,-0.4482758641242981
-737.5857133010195,1.3793103694915771
-736.35052415635982,0
-735.11557760140022,0.27586206793785095
-733.88087358561643,0.65517240762710571
-732.64641205848784,0.79310345649719238
-731.41219296949384,-1.7586207389831543
-730.17821626814293,1.9655172824859619
-728.94448190395451,-0.31034481525421143
-727.71098982645526,1.517241358757019
-726.47773998518278,-1.3103448152542114
-725.24473232970013,-1.2758620977401733
-724.01196680956673,0.41379311680793762
-722.77944337437111,0.79310345649719238
-721.5471619737018,-0.37931033968925476
-720.31512255716552,-4.4827585220336914
-719.08332507438354,-1.2758620977401733
-717.85176947499167,0.82758623361587524
-716.62045570861846,0.20689655840396881
-715.3893837249434,0.10344827920198441
-714.15855347362412,-1.1034482717514038
-712.92796490434375,-1.5862069129943848
-711.69761796680723,-1.2413792610168457
-710.46751261071586,0.65517240762710571
-709.23764878579277,-0.31034481525421143
-708.00802644177929,-0.27586206793785095
-706.77864552840947,0.13793103396892548
-705.549505995461,0.79310345649719238
-704.32060779268977,0.89655172824859619
-703.09195086989894,1.1034482717514038
-701.86353517687348,-1.5517241954803467
-700.63536066343477,-1.1034482717514038
-699.40742727940051,1.5862069129943848
-698.17973497461026,1.6551724672317505
-696.95228369891447,-0.20689655840396881
-695.72507340217453,-2.1034483909606934
-694.49810403426636,0.20689655840396881
-693.27137554508408,1.3103448152542114
-692.04488788451818,-1.482758641242981
-690.81864100249186,0.89655172824859619
-689.59263484892472,-2.5862069129943848
-688.3668693737618,-0.068965516984462738
-687.1413445269518,-0.931034505367279
-685.91606025846522,1.3793103694915771
-684.69101651826531,0.27586206793785095
-683.466213256359,-2.1724138259887695
-682.24165042274217,-0.20689655840396881
-681.01732796742908,0.13793103396892548
-679.79324584045207,-0.931034505367279
-678.5694039918435,-0.27586206793785095
-677.34580237166847,1.2068965435028076
-676.12244092999572,0.75862067937850952
-674.89931961689035,-0.034482758492231369
-673.67643838245749,-0.65517240762710571
-672.45379717679134,-0.79310345649719238
-671.23139595001885,-0.82758623361587524
-670.00923465226333,0.31034481525421143
-668.78731323367356,0.86206895112991333
-667.56563164439831,1.0689655542373657
-666.34418983461183,0.17241379618644714
-665.122987754492,-1.6896551847457886
-663.90202535423487,2.0344827175140381
-662.68130258404017,-0.931034505367279
-661.46081939413307,-1.517241358757019
-660.240575734746,-0.931034505367279
-659.0205715561151,0.10344827920198441
-657.80080680850187,-0.41379311680793762
-656.58128144217881,-0.72413790225982666
-655.361995407422,0.79310345649719238
-654.14294865453667,-1.4482758045196533
-652.9241411338171,0.58620691299438477
-651.7055727955867,-1.6206896305084229
-650.48724359018706,-0.58620691299438477
-649.26915346794885,-0.27586206793785095
-648.05130237924277,0.75862067937850952
-646.83369027443223,-1.8965517282485962
-645.61631710390611,0.75862067937850952
-644.399182818046,-2.1724138259887695
-643.18228736727724,1.1034482717514038
-641.96563070201046,-1.3793103694915771
-640.74921277268186,0.41379311680793762
-639.53303352973853,0.68965518474578857
-638.31709292363485,-0.41379311680793762
-637.101390904847,0.72413790225982666
-635.88592742385481,1.3793103694915771
-634.67070243115631,0.65517240762710571
-633.45571587726045,1.1724138259887695
-632.240967712687,0.517241358757019
-631.02645788797054,-0.034482758492231369
-629.81218635365985,-0.31034481525421143
-628.59815306031123,1.6896551847457886
-627.38435795849182,-0.82758623361587524
-626.17080099879786,-0.62068963050842285
-624.95748213181469,-1.9310344457626343
-623.7444013081531,-1.6206896305084229
-622.53155847843846,-0.4482758641242981
-621.31895359330338,0.17241379618644714
-620.10658660339141,-0.72413790225982666
-618.89445745937155,-0.24137930572032928
-617.68256611190191,0.10344827920198441
-616.47091251167694,0.31034481525421143
-615.2594966093875,-0.13793103396892548
-614.04831835574623,-1.517241358757019
-612.83737770146945,-2.2068965435028076
-611.62667459729528,0.517241358757019
-610.41620899397276,0.31034481525421143
-609.20598084225821,-0.62068963050842285
-607.99599009291524,-0.068965516984462738
-606.7862366967438,-1.3448275327682495
-605.57672060452933,0.13793103396892548
-604.36744176707907,-1
-603.15840013522575,1.0344827175140381
-601.9495956597948,-0.37931033968925476
-600.74102829162985,0.96551722288131714
-599.53269798159636,-0.5517241358757019
-598.32460468055979,-1.9655172824859619
-597.11674833940742,-0.68965518474578857
-595.90912890903019,-1
-594.70174634034447,0.82758623361587524
-593.49460058426666,-0.62068963050842285
-592.28769159173135,0.27586206793785095
-591.08101931368037,-0.24137930572032928
-589.87458370107379,0.72413790225982666
-588.66838470488256,-0.24137930572032928
-587.46242227609218,0.24137930572032928
-586.25669636569182,-2.0344827175140381
-585.05120692469245,-1.5862069129943848
-583.8459539041196,1.7931034564971924
-582.64093725499515,-0.72413790225982666
-581.43615692836647,0.82758623361587524
-580.23161287529365,-1.2758620977401733
-579.02730504684951,-0.4482758641242981
-577.82323339410868,-0.62068963050842285
-576.61939786817129,-0.82758623361587524
-575.41579842013743,-1.0344827175140381
-574.21243500113269,1.9655172824859619
-573.00930756228081,0.58620691299438477
-571.80641605473465,-0.20689655840396881
-570.60376042964162,0.034482758492231369
-569.40134063817277,-0.4482758641242981
-568.19915663151369,0.62068963050842285
-566.9972083608518,-1.0344827175140381
-565.79549577739454,1.517241358757019
-564.594018832353,-0.62068963050842285
-563.39277747696906,0.75862067937850952
-562.19177166247209,-2.1034483909606934
-560.99100134013133,-0.72413790225982666
-559.7904664612015,-0.27586206793785095
-558.59016697696461,0.034482758492231369
-557.39010283871175,0.96551722288131714
-556.19027399775041,1.0344827175140381
-554.99068040538987,1.8620690107345581
-553.79132201296306,-0.931034505367279
-552.59219877181022,0.65517240762710571
-551.39331063328973,2.4137930870056152
-550.19465754875273,-1.0344827175140381
-548.99623946958855,1.7241379022598267
-547.79805634717923,0.17241379618644714
-546.60010813293411,0.37931033968925476
-545.40239477826071,0
-544.20491623458474,0.31034481525421143
-543.0076724533501,0.58620691299438477
-541.81066338600431,1.3448275327682495
-540.6138889840131,2.0689654350280762
-539.41734919884766,0.89655172824859619
-538.22104398199917,-2.6206896305084229
-537.02497328496611,-1.3103448152542114
-535.82913705926148,0.10344827920198441
-534.63353525640559,-0.27586206793785095
-533.43816782793328,0.20689655840396881
-532.243034725403,-1.7241379022598267
-531.04813590036792,1
-529.85347130440277,-0.13793103396892548
-528.65904088909519,-0.068965516984462738
-527.46484460603642,0.10344827920198441
-526.27088240683952,1.1724138259887695
-525.07715424312846,1.2068965435028076
-523.88366006653268,4.4827585220336914
-522.69039982870345,5.2068967819213867
-521.49737348129383,6.8965516090393066
-520.30458097597693,6
-519.11202226443311,2.7931034564971924
-517.9196972983591,0.68965518474578857
-516.72760602945891,2.1379311084747314
-515.53574840945657,-1.0689655542373657
-514.34412439008338,1.6551724672317505
-513.15273392307427,0.58620691299438477
-511.96157696019327,1.0344827175140381
-510.77065345320443,1.1034482717514038
-509.57996335388816,0.58620691299438477
-508.38950661403396,2.2068965435028076
-507.19928318545135,0.517241358757019
-506.009293019948,0.89655172824859619
-504.81953606935895,-0.068965516984462738
-503.63001228552639,1.6206896305084229
-502.44072162029261,-0.034482758492231369
-501.25166402552895,1.9655172824859619
-500.06283945311225,1.9655172824859619
-498.87424785493022,1.2068965435028076
-497.68588918288151,0.27586206793785095
-496.4977633888866,-0.034482758492231369
-495.30987042485503,-1.517241358757019
-494.12221024273822,2.2068965435028076
-492.93478279447845,-0.931034505367279
-491.74758803203986,0.4482758641242981
-490.5606259073993,1.7931034564971924
-489.37389637252818,-3.1034483909606934
-488.1873993794361,0.62068963050842285
-487.00113488013267,0.75862067937850952
-485.8151028266293,-0.24137930572032928
-484.62930317096834,1.7241379022598267
-483.44373586519578,-0.27586206793785095
-482.25840086136122,-1.4482758045196533
-481.07329811153795,0.5517241358757019
-479.88842756781014,-0.89655172824859619
-478.70378918227289,-0.27586206793785095
-477.51938290702128,-0.79310345649719238
-476.33520869418317,-0.34482759237289429
-475.15126649588274,0.4482758641242981
-473.96755626426784,0.068965516984462738
-472.78407795148814,-1.5862069129943848
-471.60083150970968,-1.1724138259887695
-470.41781689110212,0.31034481525421143
-469.23503404786607,-0.82758623361587524
-468.05248293220211,0.517241358757019
-466.87016349631995,1.2413792610168457
-465.68807569244927,0.75862067937850952
-464.50621947281616,-1.2068965435028076
-463.32459478968667,2.2758619785308838
-462.14320159531053,-0.68965518474578857
-460.96203984196472,-1.2413792610168457
-459.78110948193535,-0.72413790225982666
-458.6004104675194,-1
-457.419942751023,0.068965516984462738
-456.239706284774,-0.48275861144065857
-455.05970102109859,0.27586206793785095
-453.87992691234467,1.3448275327682495
-452.70038391086928,-1.4137930870056152
-451.52107196904217,-2.5172414779663086
-450.3419910392422,0.5517241358757019
-449.16314107386461,1.3793103694915771
-447.98452202531189,-0.37931033968925476
-446.80613384600474,0.068965516984462738
-445.62797648836386,0.27586206793785095
-444.45004990483903,-0.58620691299438477
-443.27235404787461,-0.37931033968925476
-442.09488886994041,-0.68965518474578857
-440.91765432350803,-0.75862067937850952
-439.74065036106913,-2.8965516090393066
-438.56387693512079,-2.0344827175140381
-437.38733399817647,0.4482758641242981
-436.21102150276056,-0.34482759237289429
-435.03493940140834,-2.5862069129943848
-433.859087646666,-0.79310345649719238
-432.6834661910907,-0.68965518474578857
-431.50807498725953,-0.37931033968925476
-430.33291398774963,0.31034481525421143
-429.15798314515814,-0.65517240762710571
-427.98328241209492,-1
-426.80881174117167,-0.5517241358757019
-425.63457108502189,-1.7586207389831543
-424.46056039629184,0.31034481525421143
-423.28677962762958,-0.58620691299438477
-422.113228731705,-0.37931033968925476
-420.93990766119532,-1.0344827175140381
-419.76681636878857,-0.13793103396892548
-418.59395480718376,-0.37931033968925476
-417.4213229290981,-0.58620691299438477
-416.24892068725239,-2.2413792610168457
-415.07674803439113,0.34482759237289429
-413.90480492325514,1.3103448152542114
-412.73309130660527,-1.5517241954803467
-411.56160713721874,-1.1379309892654419
-410.39035236788004,-1.517241358757019
-409.21932695137548,-0.24137930572032928
-408.04853084052229,-1
-406.87796398813043,-0.58620691299438477
-405.70762634704261,0.10344827920198441
-404.53751787009242,-2.0689654350280762
-403.36763851014075,-0.48275861144065857
-402.19798822004668,-1
-401.02856695269838,-0.24137930572032928
-399.85937466097494,-1.4137930870056152
-398.69041129778452,-1.0344827175140381
-397.52167681603896,-1.1379309892654419
-396.353171168661,-1.0689655542373657
-395.18489430858972,-0.79310345649719238
-394.01684618877334,-1.5517241954803467
-392.84902676217644,0.068965516984462738
-391.68143598176539,1.7241379022598267
-390.51407380052297,0.4482758641242981
-389.3469401714483,-1.2413792610168457
-388.18003504754779,-0.96551722288131714
-387.01335838184059,0.41379311680793762
-385.84691012736039,-1
-384.6806902371427,-2.8620688915252686
-383.51469866424304,0.034482758492231369
-382.34893536172967,-1
-381.18340028268176,-1.1379309892654419
-380.01809338018211,-0.34482759237289429
-378.85301460734081,1.1724138259887695
-377.68816391725704,-1.517241358757019
-376.52354126307,-0.82758623361587524
-375.35914659789887,-1.482758641242981
-374.19497987490831,-1.6551724672317505
-373.03104104724662,1.7931034564971924
-371.86733006808936,-1.3448275327682495
-370.70384689061211,0.37931033968925476
-369.54059146801774,-0.48275861144065857
-368.37756375350727,-1.517241358757019
-367.21476370029814,-1.9310344457626343
-366.05219126162228,1.2068965435028076
-364.8898463907135,0.20689655840396881
-363.72772904083467,-1.7241379022598267
-362.56583916524323,0.68965518474578857
-361.40417671721116,-0.79310345649719238
-360.24274165003226,-0.62068963050842285
-359.081533917004,-0.37931033968925476
-357.92055347143287,-0.17241379618644714
-356.75980026664365,-1.4137930870056152
-355.599274255972,-0.72413790225982666
-354.43897539276259,-0.34482759237289429
-353.27890363036749,2.1379311084747314
-352.11905892216055,-2.1034483909606934
-350.95944122151559,0.068965516984462738
-349.80005048183375,-0.17241379618644714
-348.64088665651252,-2.0689654350280762
-347.48194969896213,-0.31034481525421143
-346.32323956261644,-0.72413790225982666
-345.1647562009075,2.3448276519775391
-344.00649956729103,-0.31034481525421143
-342.84846961522635,-0.41379311680793762
-341.69066629818008,-2.1724138259887695
-340.53308956964429,1.3103448152542114
-339.37573938310743,-0.4482758641242981
-338.2186156920834,-0.13793103396892548
-337.06171845008612,0.86206895112991333
-335.90504761065313,-2.8275861740112305
-334.74860312731835,1.0344827175140381
-333.59238495363388,0.27586206793785095
-332.43639304317185,2.9655172824859619
-331.28062734950618,2.4137930870056152
-330.12508782622172,-0.72413790225982666
-328.96977442692332,0.4482758641242981
-327.81468710521767,2.1379311084747314
-326.65982581472417,1.8620690107345581
-325.50519050908952,-0.17241379618644714
-324.35078114194584,1.3103448152542114
-323.19659766695622,-0.27586206793785095
-322.042640037791,-0.82758623361587524
-320.88890820812412,0.62068963050842285
-319.73540213164961,-1.2413792610168457
-318.58212176207417,-0.96551722288131714
-317.42906705310816,0.86206895112991333
-316.2762379584783,-0.034482758492231369
-315.12363443192226,0.37931033968925476
-313.9712564271922,-3.2413792610168457
-312.81910389803852,-0.24137930572032928
-311.66717679824615,-1.482758641242981
-310.51547508159092,-0.13793103396892548
-309.36399870186324,-1.482758641242981
-308.21274761287896,-1.0689655542373657
-307.0617217684503,-1.6551724672317505
-305.91092112241131,-0.79310345649719238
-304.7603456285924,1.1034482717514038
-303.60999524085491,-1.1379309892654419
-302.45986991305472,-0.034482758492231369
-301.30996959907316,-1.4137930870056152
-300.16029425279521,2.2758619785308838
-299.01084382811496,-2.7241380214691162
-297.86161827894466,-0.82758623361587524
-296.71261755920386,-0.89655172824859619
-295.563841622823,-0.79310345649719238
-294.41529042374714,-0.75862067937850952
-293.26696391593214,-1.1724138259887695
-292.11886205333758,0.034482758492231369
-290.97098478994849,0.068965516984462738
-289.82333207974989,-0.41379311680793762
-288.67590387674136,-0.96551722288131714
-287.52870013493884,0.068965516984462738
-286.38172080835648,0.37931033968925476
-285.23496585103931,-1.4482758045196533
-284.08843521702511,-0.27586206793785095
-282.94212886037531,-0.75862067937850952
-281.79604673515678,-2.1034483909606934
-280.65018879545278,1.0344827175140381
-279.50455499534473,-2.1379311084747314
-278.359145288945,-1.7586207389831543
-277.21395963036048,0.27586206793785095
-276.06899797372535,-0.96551722288131714
-274.92426027316469,-0.24137930572032928
-273.77974648283453,2
-272.63545655689268,-1.1034482717514038
-271.49139044950425,-1.3448275327682495
-270.34754811485618,-2.1379311084747314
-269.20392950714449,-1.3448275327682495
-268.06053458056886,-0.96551722288131714
-266.91736328934348,-2.1724138259887695
-265.77441558769715,0.48275861144065857
-264.631691429875,-1.6896551847457886
-263.48919077011669,2.8275861740112305
-262.34691356268377,0.10344827920198441
-261.20485976185773,-0.86206895112991333
-260.06302932191284,-0.24137930572032928
-258.92142219715242,0.37931033968925476
-257.78003834187439,1.3793103694915771
-256.63887771039481,-1.0689655542373657
-255.49794025705341,-0.58620691299438477
-254.35722593618084,1.1724138259887695
-253.216734702135,-0.65517240762710571
-252.076466509272,-0.58620691299438477
-250.93642131196611,0.17241379618644714
-249.7965990646062,-2.0344827175140381
-248.65699972158654,-0.5517241358757019
-247.51762323731782,0.96551722288131714
-246.37846956621252,0.517241358757019
-245.23953866270131,1.0689655542373657
-244.1008304812367,0.48275861144065857
-242.96234497625483,3.0689654350280762
-241.8240821022282,2.0344827175140381
-240.68604181363298,-1.1724138259887695
-239.54822406495077,2.4827585220336914
-238.41062881068319,0.517241358757019
-237.27325600533186,-0.517241358757019
-236.13610560342386,1.2068965435028076
-234.99917755948991,0.65517240762710571
-233.862471828068,1.7241379022598267
-232.72598836371435,0.517241358757019
-231.58972712099603,-0.10344827920198441
-230.45368805447833,0.34482759237289429
-229.3178711187611,-0.62068963050842285
-228.18227626843509,-1.6551724672317505
-227.04690345811105,2.4827585220336914
-225.91175264241065,1.7931034564971924
-224.77682377596102,1.8620690107345581
-223.64211681341294,1.1724138259887695
-222.507631709419,1.3793103694915771
-221.37336841863544,2
-220.2393268957494,-1.1034482717514038
-219.10550709544077,1.5862069129943848
-217.97190897241308,1.3793103694915771
-216.83853248137348,0.34482759237289429
-215.70537757704551,1.7586207389831543
-214.57244421415817,0.65517240762710571
-213.43973234745863,1.482758641242981
-212.3072419316959,1.3448275327682495
-211.1749729216408,1.6551724672317505
-210.042925272066,4.1379308700561523
-208.91109893776047,1.8965517282485962
-207.77949387352419,2.0344827175140381
-206.64811003416798,2.4137930870056152
-205.5169473745118,2.2068965435028076
-204.38600584938649,3.2758619785308838
-203.25528541363383,2.310344934463501
-202.12478602211559,1.7586207389831543
-200.99450762968627,0.75862067937850952
-199.86445019123312,-1
-198.73461366164156,2.4827585220336914
-197.60499799580612,2.0344827175140381
-196.47560314863586,1.4137930870056152
-195.34642907505804,0.58620691299438477
-194.21747572999993,1.2068965435028076
-193.0887430684088,1.9655172824859619
-191.96023104523192,3.6551723480224609
-190.83193961544202,2.1724138259887695
-189.70386873401003,0.79310345649719238
-188.57601835592868,2.4827585220336914
-187.44838843618891,2.0689654350280762
-186.32097892980892,0.034482758492231369
-185.19378979179783,3.0689654350280762
-184.06682097719931,1.4137930870056152
-182.94007244104978,1.3793103694915771
-181.81354413840563,3.0689654350280762
-180.68723602432692,2.9310345649719238
-179.56114805389007,3.2068965435028076
-178.43528018218967,2.5517241954803467
-177.30963236431307,2.8620688915252686
-176.18420455537307,2.6206896305084229
-175.05899671049156,1.7586207389831543
-173.93400878479952,2.2413792610168457
-172.8092407334334,5.6896553039550781
-171.68469251155148,4.1724138259887695
-170.56036407431748,3.5862069129943848
-169.43625537690059,3.5172414779663086
-168.31236637449183,3.7241380214691162
-167.18869702228221,7.0689654350280762
-166.06524727548822,4.0689654350280762
-164.94201708932451,9.7931032180786133
-163.81900641901848,9.1034479141235352
-162.69621521981026,8.3448276519775391
-161.57364344695634,7.5862069129943848
-160.45129105571505,7.9655170440673828
-159.32915800136652,9.2758617401123047
-158.20724423918546,8.6551723480224609
-157.08554972447382,7.1724138259887695
-155.96407441253541,8.5862064361572266
-154.84281825868857,9.7586202621459961
-153.72178121826437,8.1034479141235352
-152.60096324659753,10.241379737854004
-151.48036429904278,7.1034483909606934
-150.35998433095847,8.5862064361572266
-149.23982329771206,9
-148.11988115469831,6.4482760429382324
-147.0001578572992,10.482758522033691
-145.88065336092768,8.4482755661010742
-144.76136762099122,7.6896553039550781
-143.64230059293004,10.586206436157227
-142.5234522321698,10.275861740112305
-141.40482249415982,9.8965520858764648
-140.28641133436759,10.758620262145996
-139.16821870825697,12.931034088134766
-138.05024457131003,11.620689392089844
-136.93248887901791,14.655172348022461
-135.81495158688631,11.655172348022461
-134.69763265042639,12.413793563842773
-133.58053202516567,15.275861740112305
-132.46364966663896,14.448275566101074
-131.34698553039198,16.758621215820313
-130.23053957198317,16.586206436157227
-129.11431174697645,18.482759475708008
-127.99830201095756,19.827587127685547
-126.8825103195104,19.931034088134766
-125.76693662824073,19.931034088134766
-124.65158089275792,21.241378784179688
-123.53644306868227,23.068965911865234
-122.42152311165228,26.827587127685547
-121.30682097731187,25.448276519775391
-120.19233662130864,28.586206436157227
-119.07806999931199,27.103448867797852
-117.96402106700589,27.79310417175293
-116.85018978006883,30.241378784179688
-115.73657609419934,29.724138259887695
-114.62317996511774,30.965517044067383
-113.51000134852802,32.482757568359375
-112.39704020017234,34.310344696044922
-111.28429647578741,35.7931022644043
-110.17177013112814,38.172412872314453
-109.05946112195488,43.2068977355957
-107.94736940404619,41.448276519775391
-106.83549493318606,46
-105.72383766516577,45.758621215820313
-104.612397555793,49.551723480224609
-103.50117456088628,52.379310607910156
-102.39016863627148,54.068965911865234
-101.27937973778899,54.965518951416016
-100.16880782129374,63.724136352539063
-99.058452842637053,59.137931823730469
-97.9483147576957,63.862068176269531
-96.838393522348269,72.6551742553711
-95.728689092489731,72.862068176269531
-94.6192014240205,76.517242431640625
-93.509930472861015,83.448272705078125
-92.400876194924422,90.275863647460938
-91.2920385461548,94.172416687011719
-90.183417482501682,100.72413635253906
-89.075012959910964,102.82758331298828
-87.9668249343631,110.17241668701172
-86.85885336182946,112.65517425537109
-85.751098198299587,117.62068939208984
-84.643559399773949,115.06896209716797
-83.536236922265743,113.82758331298828
-82.429130721789988,112.34482574462891
-81.322240754388986,114.27586364746094
-80.215566976095943,114.89655303955078
-79.109109342967713,116.79310607910156
-78.002867811070246,123.89655303955078
-76.896842336478585,127
-75.791032875273231,131.86207580566406
-74.685439383558332,140.65516662597656
-73.580061817436217,140.17240905761719
-72.474900133025585,146.41378784179688
-71.3699542864506,155.03448486328125
-70.265224233859044,167.89654541015625
-69.160709931396923,173.0689697265625
-68.05641133521749,183.13792419433594
-66.952328401503109,189.65516662597656
-65.848461086430689,188.44827270507813
-64.7448093461935,184.86207580566406
-63.641373136992115,186.13792419433594
-62.538152415045261,186.0689697265625
-61.435147136569867,187.34483337402344
-60.332357257806507,191.96551513671875
-59.229782735001208,195.24137878417969
-58.127423524405458,207.34483337402344
-57.025279582292569,220.37930297851563
-55.923350864935855,241.0689697265625
-54.821637328623183,248.48275756835938
-53.720138929656969,242.20689392089844
-52.618855624345088,232.20689392089844
-51.517787369006328,220.68965148925781
-50.41693411997403,204.62069702148438
-49.316295833586992,204.44827270507813
-48.215872466198562,204.48275756835938
-47.115663974169365,220.34483337402344
-46.015670313878218,251.37930297851563
-44.915891441702115,301.68966674804688
-43.816327314034424,368.58621215820313
-42.716977887288522,400.58621215820313
-41.617843117875964,423.75860595703125
-40.518922962221041,444.0689697265625
-39.420217376760775,495.9310302734375
-38.3217263179431,582.89654541015625
-37.223449742226876,718.55169677734375
-36.125387606081858,838.82757568359375
-35.027539865983272,842.75860595703125
-33.929906478420889,810.137939453125
-32.832487399897218,814.137939453125
-31.735282586923859,809.0689697265625
-30.638291996019689,759.82757568359375
-29.541515583716318,686.03448486328125
-28.44495330655991,637.5172119140625
-27.348605121096625,609
-26.252470983896274,566.55169677734375
-25.156550851528664,542.0689697265625
-24.060844680578157,522
-22.965352427649123,496.82757568359375
-21.870074049333198,482.137939453125
-20.775009502252942,463.862060546875
-19.680158743038191,450.41378784179688
-18.585521728322419,430.27584838867188
-17.491098414751832,408.27584838867188
-16.396888758989007,398.2069091796875
-15.302892717698342,387.72415161132813
-14.209110247560602,380.75860595703125
-13.115541305269289,372.72415161132813
-12.022185847514265,374.75860595703125
-10.929043831019953,367.82757568359375
-9.8361152124980435,371.58621215820313
-8.7433999486820539,362.68966674804688
-7.65089799631096,358
-6.5586093121492013,324.37930297851563
-5.466533852946668,237.65516662597656
-4.3746715754823526,65.172416687011719
-3.2830224365425238,3.8620688915252686
-2.1915863929170882,-11.344827651977539
-1.1003634014141426,-17.103448867797852
-0.0093534188454214018,-22.137931823730469
1.0814435979573318,-15.793103218078613
2.1720276921641926,-1.6206896305084229
3.2623989069197705,12.82758617401123
4.35255728537777,80.5862045288086
5.4425028706609737,263.0689697265625
6.5322357058976195,339.89654541015625
7.6217558341977565,360.37930297851563
8.7110632986587,372.82757568359375
9.8001581423777679,376.72415161132813
10.889040408424989,385.55172729492188
11.977710139883129,389.72415161132813
13.06616737980039,395.58621215820313
14.154412171230433,407.68966674804688
15.242444557208728,425.62069702148438
16.330264580770745,433.31033325195313
17.417872284928308,449.72415161132813
18.50526771269142,476.9310302734375
19.592450907051898,501.0689697265625
20.679421910997917,518.5172119140625
21.766180767510377,531.6551513671875
22.852727519550172,563.24139404296875
23.939062210076372,589.37933349609375
25.025184882029862,605.55169677734375
26.111095578347886,646.03448486328125
27.196794341953137,685.137939453125
28.28228121576285,755.6551513671875
29.367556242677892,803.75860595703125
30.452619465586395,881.37933349609375
31.537470927380127,932.44830322265625
32.622110670923576,944.62066650390625
33.706538739086682,942.3448486328125
34.790755174713922,991.72412109375
35.874760020649774,951
36.95855331972416,806.62066650390625
38.04213511476155,660.44830322265625
39.125505448568219,562.24139404296875
40.208664363943171,507.9310302734375
41.291611903676312,500.24139404296875
42.37434811055391,470.75860595703125
43.45687302733495,430.34481811523438
44.539186696785691,356.7930908203125
45.621289161648747,293.24139404296875
46.703180464664911,261.72415161132813
47.784860648560425,245.31034851074219
48.866329756052437,248.68965148925781
49.947587829856275,251.72413635253906
51.028634912656344,268.82757568359375
52.109471047146144,290.2069091796875
53.190096275999167,301.44827270507813
54.270510641885267,301.55172729492188
55.350714187454287,294.31033325195313
56.430706955356072,277.62069702148438
57.5104889882241,259.65518188476563
58.590060328684558,248
59.669421019347283,238.10345458984375
60.7485711028221,234.9310302734375
61.82751062170064,233.65516662597656
62.906239618561813,236.51724243164063
63.984758135989978,237
65.063066216536754,241.58621215820313
66.141163902764674,244.55172729492188
67.219051237207168,245.55172729492188
68.29672826240494,235.13792419433594
69.374195020876869,218.62069702148438
70.4514515551291,205.13792419433594
71.528497907673227,197.89654541015625
72.605334120997213,190.41378784179688
73.681960237579915,185.27586364746094
74.758376299892916,178.0689697265625
75.8345823503987,174.86207580566406
76.910578431545218,168.03448486328125
77.986364585774936,164
79.061940855521243,160.20689392089844
80.137307283193877,156.96551513671875
81.212463911211671,155.68965148925781
82.28741078197163,157.72413635253906
83.362147937861664,159.82759094238281
84.436675421262407,162.20689392089844
85.51099327454358,162.65516662597656
86.58510154006035,160.68965148925781
87.659000260162429,153.31034851074219
88.7326894771868,150.89654541015625
89.80616923346679,138.82759094238281
90.879439571315743,130.68965148925781
91.952500533045168,127.51724243164063
93.025352160946568,120.44827270507813
94.097994497313266,112.48275756835938
95.170427584422214,108.68965148925781
96.242651464532173,103.37931060791016
97.314666179911,99.068962097167969
98.386471772804725,95.379310607910156
99.458068285441186,89.689651489257813
100.52945576005368,84
101.60063423885185,84.724136352539063
102.67160376405081,77.758621215820313
103.74236437784384,76.758621215820313
104.81291612240966,71.03448486328125
105.88325903993427,71
106.95339317257822,65.551727294921875
108.02331856250021,61.896553039550781
109.09303525183896,58.551723480224609
110.16254328273681,55.896553039550781
111.23184269731064,54.2068977355957
112.30093353768643,52.896553039550781
113.36981584596106,47.896553039550781
114.43848966423138,49.448276519775391
115.50695503458155,47.551723480224609
116.57521199908842,46.068965911865234
117.64326059981613,42.862068176269531
118.71110087881789,42.413791656494141
119.77873287813418,42.310344696044922
120.8461566398073,40.241378784179688
121.91337220585774,40.965518951416016
122.98037961829687,38.620689392089844
124.04717891912696,39.2068977355957
125.11377015035214,32.827587127685547
126.18015335394557,34.379310607910156
127.24632857188772,31.413793563842773
128.31229584614084,33.275863647460938
129.37805521865448,27.931034088134766
130.44360673138181,28.724138259887695
131.50895042624506,25.862068176269531
132.57408634517378,25.482759475708008
133.63901453007747,26.034482955932617
134.70373502286202,25.137931823730469
135.76824786542602,23.517240524291992
136.83255309964807,20.344827651977539
137.89665076739402,18.172412872314453
138.96054091054066,21.79310417175293
140.024223570932,20.965517044067383
141.08769879041392,16.79310417175293
142.1509666108177,19.517240524291992
143.214027073971,18.655172348022461
144.27688022168513,18.79310417175293
145.33952609575863,17.310344696044922
146.40196473799006,15.620689392089844
147.46419619015978,17.034482955932617
148.52622049404272,15.965517044067383
149.58803769140104,16.068965911865234
150.64964782398602,15.103447914123535
151.71105093354345,16.620689392089844
152.77224706180459,18.551723480224609
153.83323625049343,17.931034088134766
154.89401854132302,16.620689392089844
155.95459397599734,15.206896781921387
157.01496259620762,19.068965911865234
158.07512444363783,16.551723480224609
159.13507955996283,13.896552085876465
160.19482798684112,15.689655303955078
161.25436976592937,16.965517044067383
162.31370493887334,16.275861740112305
163.37283354730243,15.965517044067383
164.4317556328424,14.931034088134766
165.49047123710079,14.896552085876465
166.54898040169246,13.379310607910156
167.60728316820132,11.068965911865234
168.66537957821311,11.82758617401123
169.72326967330264,9.1379308700561523
170.780953495032,10.517241477966309
171.83843108495967,7.8275861740112305
172.89570248462041,8.1379308700561523
173.95276773555634,9.2758617401123047
175.00962687929132,6.2758622169494629
176.06627995733652,7.1724138259887695
177.12272701119764,5.4137930870056152
178.178968082364,5.7586207389831543
179.23500321232495,7.379310131072998
180.2908324425498,5.8620691299438477
181.34645581451332,5.6896553039550781
182.40187336966119,4.7586207389831543
183.45708514943908,1.9310344457626343
184.51209119528539,6.7931032180786133
185.56689154862397,5.0344829559326172
186.62148625086775,4.5862069129943848
187.67587534342056,3.9655172824859619
188.7300588676826,5.1034483909606934
189.78403686503225,4.0689654350280762
190.83780937685697,6.2068967819213867
191.89137644451148,5.9655170440673828
192.94473810935415,4.2758622169494629
193.9978944127306,4.6551723480224609
195.050845395981,6.5517239570617676
196.10359110042373,3.4827585220336914
197.15613156738254,6
198.20846683816126,4.8965516090393066
199.26059695405638,4.8965516090393066
200.31252195635352,5.5517239570617676
201.36424188632918,6.8965516090393066
202.4157567852526,4.2068967819213867
203.4670666943839,4.379310131072998
204.51817165496323,5.5862069129943848
205.56907170823069,4.4482760429382324
206.61976689541734,3.6206896305084229
207.670257257736,2.0689654350280762
208.72054283640318,4.8965516090393066
209.77062367260442,4.8275861740112305
210.820499807538,3.7241380214691162
211.8701712823804,3.5172414779663086
212.91963813829716,5.0344829559326172
213.96890041645383,2.9310345649719238
215.01795815799051,4.6896553039550781
216.06681140405453,3.6206896305084229
217.11546019577327,4.0344829559326172
218.16390457426678,4.2068967819213867
219.2121445806406,5.6551723480224609
220.26018025599478,3.7241380214691162
221.30801164143122,6.8965516090393066
222.35563877801724,4.3448276519775391
223.40306170683289,5.5517239570617676
224.45028046893094,3.5172414779663086
225.49729510536963,3.310344934463501
226.54410565718536,1.2413792610168457
227.59071216541633,4.8965516090393066
228.6371146710826,2.3793103694915771
229.68331321518963,2.8275861740112305
230.72930783874654,2.3448276519775391
231.77509858274425,1.0344827175140381
232.82068548816642,2.2413792610168457
233.86606859598396,2.6206896305084229
234.91124794716416,1.5862069129943848
235.95622358265609,2.3448276519775391
237.00099554340886,0.17241379618644714
238.04556387035336,3.9655172824859619
239.08992860441322,0.4482758641242981
240.13408978650659,2.5862069129943848
241.1780474575371,3.689655065536499
242.22180165840109,2.3448276519775391
243.26535242998034,-1.1379309892654419
244.30869981315118,2.3793103694915771
245.35184384878812,1.2758620977401733
246.39478457773839,1.1379309892654419
247.43752204085104,1.9310344457626343
248.48005627896237,0.20689655840396881
249.52238733290687,0.68965518474578857
250.56451524348995,0.20689655840396881
251.60644005152972,0.72413790225982666
252.64816179782065,0.72413790225982666
253.68968052315358,1.6206896305084229
254.730996268303,0.517241358757019
255.77210907403787,2.3448276519775391
256.81301898112542,0.5517241358757019
257.85372603030919,1.9655172824859619
258.89423026233089,0.82758623361587524
259.93453171791953,2.3448276519775391
260.9746304377968,1.6896551847457886
262.01452646267171,0.17241379618644714
263.05421983325323,-0.82758623361587524
264.09371059022669,0.68965518474578857
265.13299877427562,1.3793103694915771
266.1720844260708,1
267.21096758627755,1.2413792610168457
268.24964829555029,1.2758620977401733
269.2881265945307,1.8275861740112305
270.32640252385318,-0.17241379618644714
271.3644761241394,0.89655172824859619
272.40234743601104,-2.1034483909606934
273.44001650006248,-0.034482758492231369
274.47748335689721,-0.75862067937850952
275.51474804710051,1.517241358757019
276.55181061124858,1.6551724672317505
277.58867108990307,2.5517241954803467
278.6253295236238,0.931034505367279
279.66178595296151,-0.068965516984462738
280.69804041844691,2.6206896305084229
281.73409296061618,0
282.76994361998004,-0.20689655840396881
283.805592437051,0
284.84103945233073,0.31034481525421143
285.87628470630625,0.68965518474578857
286.91132823945736,-0.72413790225982666
287.94617009225294,0.37931033968925476
288.98081030516005,0.62068963050842285
290.01524891862209,0.20689655840396881
291.04948597308794,1.2758620977401733
292.08352150898645,1.0689655542373657
293.11735556673921,2.3793103694915771
294.1509881867587,1.2758620977401733
295.18441940945377,-0.58620691299438477
296.21764927521144,1.5517241954803467
297.25067782442056,1.0344827175140381
298.2835050974536,1.3448275327682495
299.31613113467938,-1.1724138259887695
300.34855597644855,3.4137930870056152
301.38077966311357,0
302.41280223500326,-0.034482758492231369
303.44462373245005,3
304.47624419576641,-0.13793103396892548
305.50766366526477,0.5517241358757019
306.53888218124666,0.48275861144065857
307.56989978399361,1.6206896305084229
308.60071651379076,1.6896551847457886
309.63133241090145,0
310.66174751559265,1.3103448152542114
311.69196186811314,0.37931033968925476
312.72197550869896,0.37931033968925476
313.7517884775898,1.7241379022598267
314.78140081500351,0.20689655840396881
315.81081256115249,1.3793103694915771
316.84002375624368,-1.0689655542373657
317.86903444046584,1.1034482717514038
318.89784465400771,-0.58620691299438477
319.92645443703987,0.86206895112991333
320.95486382973104,1.6896551847457886
321.98307287223361,1.5517241954803467
323.01108160469812,2.2758619785308838
324.03889006725694,4.5517239570617676
325.06649830004426,4.6896553039550781
326.09390634316696,5.2413792610168457
327.12111423674287,4.5517239570617676
328.14812202086614,5.2068967819213867
329.1749297356273,5.620689868927002
330.20153742110597,3.4827585220336914
331.22794511737266,0.72413790225982666
332.25415286449424,2
333.28016070251033,0.24137930572032928
334.30596867147324,1.3103448152542114
335.33157681140983,0.17241379618644714
336.356985162347,1.2413792610168457
337.38219376429515,-0.62068963050842285
338.40720265726304,0.89655172824859619
339.4320118812393,-0.4482758641242981
340.45662147621442,1
341.48103148216251,-0.5517241358757019
342.50524193905039,0.31034481525421143
343.52925288683764,0.27586206793785095
344.55306436546562,-0.34482759237289429
345.57667641487933,-0.79310345649719238
346.60008907500196,0.96551722288131714
347.62330238575669,0.20689655840396881
348.6463163870576,0.517241358757019
349.66913111879694,1.2068965435028076
350.691746620867,-0.68965518474578857
351.71416293315815,-1.0344827175140381
352.73638009553179,-2.6551723480224609
353.75839814785832,-1.8965517282485962
354.78021712998816,-1.4482758045196533
355.80183708176628,-0.75862067937850952
356.82325804302855,-0.068965516984462738
357.84448005359627,-1.3448275327682495
358.86550315329259,-0.4482758641242981
359.88632738192064,-0.20689655840396881
360.90695277927625,0.96551722288131714
361.9273793851462,-0.96551722288131714
362.94760723931722,0.20689655840396881
363.9676363815488,-0.034482758492231369
364.98746685160586,0.65517240762710571
366.00709868923332,-2.2068965435028076
367.02653193418337,-0.68965518474578857
368.0457666261791,0.4482758641242981
369.06480280494725,-0.13793103396892548
370.08364051019453,1.8620690107345581
371.10227978162948,-0.72413790225982666
372.12072065894608,-2.2068965435028076
373.13896318183288,-0.75862067937850952
374.15700738995474,0.13793103396892548
375.17485332298929,-2.1724138259887695
376.1925010205905,-0.41379311680793762
377.20995052240505,2.1724138259887695
378.22720186806691,-1.8620690107345581
379.24425509721186,1.4482758045196533
380.26111024945749,-0.62068963050842285
381.27776736441228,-1.5862069129943848
382.29422648167929,0.82758623361587524
383.31048764085062,-0.48275861144065857
384.3265508815075,-0.48275861144065857
385.34241624322385,-1.1724138259887695
386.35808376556452,-1.482758641242981
387.37355348807978,0.27586206793785095
388.38882545031993,-0.4482758641242981
389.40389969181524,-0.37931033968925476
390.41877625210145,-0.65517240762710571
391.433455170687,-0.931034505367279
392.447936487084,0.72413790225982666
393.46222024079,-1.8275861740112305
394.476306471297,-0.86206895112991333
395.49019521808259,-0.5517241358757019
396.50388652061883,-0.20689655840396881
397.51738041836506,-2.0344827175140381
398.530676950777,0.68965518474578857
399.54377615729936,-1.2758620977401733
400.55667807736063,-0.4482758641242981
401.5693827503892,0.65517240762710571
402.5818902157971,-1.4137930870056152
403.59420051299639,0.068965516984462738
404.60631368137911,-1.5517241954803467
405.61822976033545,-2.1379311084747314
406.62994878923928,0.517241358757019
407.64147080746443,-0.034482758492231369
408.6527958543702,-1.1034482717514038
409.66392396930314,-1.0689655542373657
410.67485519161164,1
411.68558956062407,-2.1724138259887695
412.69612711565969,-2.2068965435028076
413.70646789603961,-0.31034481525421143
414.71661194106127,-0.79310345649719238
415.72655929002758,-2.5862069129943848
416.73630998222143,-0.89655172824859619
417.745864056913,-1.1379309892654419
418.75522155338149,-0.89655172824859619
419.76438251087711,-1.6896551847457886
420.77334696865182,-1.3793103694915771
421.78211496594486,0.068965516984462738
422.79068654198818,-1.5517241954803467
423.79906173600284,1.1379309892654419
424.80724058720261,-1.3793103694915771
425.81522313478672,0.20689655840396881
426.82300941795256,0.10344827920198441
427.83059947589027,-0.17241379618644714
428.8379933477645,0.17241379618644714
429.84519107274537,0.75862067937850952
430.85219268999572,-0.931034505367279
431.85899823866021,0
432.86560775787439,1.6551724672317505
433.87202128677382,-0.37931033968925476
434.8782388644795,-2.1724138259887695
435.88426053009243,0.62068963050842285
436.89008632272635,-1
437.89571628147496,-2.4137930870056152
438.9011504454138,2.3448276519775391
439.90638885362387,-1.3103448152542114
440.91143154516431,-1.6551724672317505
441.91627855910519,-0.37931033968925476
442.92092993447841,-1.7586207389831543
443.92538571033219,-2.0344827175140381
444.92964592569297,-1.4137930870056152
445.93371061957805,0.068965516984462738
446.93757983100477,-0.72413790225982666
447.94125359896861,0.31034481525421143
448.94473196246508,-1.4482758045196533
449.94801496047694,-0.79310345649719238
450.95110263197967,-1.8275861740112305
451.953995015936,-0.31034481525421143
452.95669215130511,-2.3448276519775391
453.95919407703332,0.13793103396892548
454.96150083205976,-3.0689654350280762
455.96361245530716,0.034482758492231369
456.96552898570553,-2.7931034564971924
457.96725046215579,1.4482758045196533
458.96877692356611,-0.79310345649719238
459.97010840882649,-0.24137930572032928
460.971244956816,0.13793103396892548
461.972186606421,-0.58620691299438477
462.97293339649332,-2.2068965435028076
463.97348536589743,0.58620691299438477
464.97384255347788,-0.13793103396892548
465.97400499807009,-1.9310344457626343
466.97397273850584,-1.3103448152542114
467.97374581360418,-0.86206895112991333
468.97332426217872,-0.58620691299438477
469.9727081230285,0
470.97189743494346,1.1034482717514038
471.97089223671173,1.2413792610168457
472.96969256710508,2.6551723480224609
473.96829846489163,1.7586207389831543
474.96670996882312,1.8620690107345581
475.96492711765313,1.4137930870056152
476.96294995011704,-0.24137930572032928
477.96077850494112,-1.7586207389831543
478.958412820848,0.20689655840396881
479.95585293654949,-0.31034481525421143
480.95309889074997,2.8965516090393066
481.95015072213755,-2
482.94700846940214,-0.41379311680793762
483.94367217121362,1.2413792610168457
484.94014186624008,-0.34482759237289429
485.93641759313687,-0.5517241358757019
486.93249939055568,-0.517241358757019
487.92838729713003,-0.58620691299438477
488.92408135149708,2
489.91958159227397,-0.75862067937850952
490.91488805807057,-0.20689655840396881
491.9100007874913,1
492.90491981913328,-1.482758641242981
493.89964519157547,2
494.89417694339863,0
495.88851511317262,1.517241358757019
496.88265973944726,1.1724138259887695
497.87661086077605,1.9310344457626343
498.87036851569792,-0.62068963050842285
499.86393274274451,3.1034483909606934
500.8573035804402,4.3448276519775391
501.85048106729482,2.9310345649719238
502.84346524181092,1.7586207389831543
503.83625614248922,2.1034483909606934
504.82885380781045,1.3103448152542114
505.82125827625532,1.2068965435028076
506.81346958628819,4.3103446960449219
507.80548777637341,1.0344827175140381
508.79731288496077,3.4827585220336914
509.78894495048735,4.4827585220336914
510.7803840113902,2.2413792610168457
511.77163010608638,4.2413792610168457
512.7626832729984,9.4827585220336914
513.753543550527,13.310344696044922
514.74421097707091,21.172412872314453
515.73468559101457,33.482757568359375
516.72496743074043,47.379310607910156
517.71505653461827,54.827587127685547
518.7049529410051,47.655174255371094
519.69465668825978,34.586208343505859
520.68416781471751,21.034482955932617
521.67348635871713,15.103447914123535
522.6626123585811,8.2068967819213867
523.6515458526319,11.310344696044922
524.64028687916834,4.0689654350280762
525.62883547649471,5.9310345649719238
526.61719168289892,0.86206895112991333
527.60535553665977,2.3448276519775391
528.59332707605427,3.5517241954803467
529.58110633933939,3.1379311084747314
530.5686933647703,1.7241379022598267
531.55608819059671,2.2068965435028076
532.543290855052,-1.2413792610168457
533.53030139635848,-1.8275861740112305
534.517119852746,2.3448276519775391
535.50374626241319,0.72413790225982666
536.49018066356621,-0.068965516984462738
537.47642309439289,0.89655172824859619
538.46247359308109,1.1034482717514038
539.44833219780412,0.68965518474578857
540.43399894672075,0.41379311680793762
541.419473877997,-0.931034505367279
542.40475702977346,-1.1724138259887695
543.38984844019069,-1.1724138259887695
544.37474814737834,1.9310344457626343
545.35945618945516,-1.8620690107345581
546.3439726045417,1.4482758045196533
547.32829743073307,-0.58620691299438477
548.31243070612072,-0.24137930572032928
549.29637246879975,-1.482758641242981
550.28012275683977,0.48275861144065857
551.26368160831407,-1.2413792610168457
552.24704906127408,-0.62068963050842285
553.23022515377488,-0.34482759237289429
554.21320992386063,-1.5517241954803467
555.19600340955367,0.62068963050842285
556.1786056488927,1.6896551847457886
557.16101667987823,-1.3793103694915771
558.14323654052532,1.2068965435028076
559.12526526882721,0.4482758641242981
560.10710290277348,-0.65517240762710571
561.088749480341,-0.4482758641242981
562.07020503950662,-0.24137930572032928
563.0514696182272,0.34482759237289429
564.03254325445778,-1.4482758045196533
565.01342598614065,-1.8620690107345581
565.99411785121265,0.24137930572032928
566.97461888760517,-0.58620691299438477
567.9549291332296,0.10344827920198441
568.93504862599912,0.37931033968925476
569.91497740381055,-1.517241358757019
570.89471550455892,0.931034505367279
571.8742629661283,-0.62068963050842285
572.85361982638642,3.310344934463501
573.83278612320282,0.17241379618644714
574.81176189443613,-1.8620690107345581
575.79054717792678,0.034482758492231369
576.76914201152067,-0.10344827920198441
577.747546433051,0.37931033968925476
578.72576048033079,0.10344827920198441
579.70378419117333,1.8620690107345581
580.6816176033899,0.68965518474578857
581.65926075476636,-0.75862067937850952
582.63671368309952,-1.3448275327682495
583.613976426157,-0.79310345649719238
584.59104902171384,0.10344827920198441
585.56793150752856,-0.24137930572032928
586.54462392135247,-0.24137930572032928
587.52112630092961,-0.24137930572032928
588.49743868399491,-1.3448275327682495
589.473561108267,-2.310344934463501
590.44949361146973,1.2758620977401733
591.42523623130546,-1.0689655542373657
592.40078900547815,-0.37931033968925476
593.37615197168088,-0.41379311680793762
594.35132516758313,-0.31034481525421143
595.32630863086888,-0.58620691299438477
596.30110239920032,-0.5517241358757019
597.27570651022688,-0.17241379618644714
598.25012100160166,-1.5517241954803467
599.22434591095953,1.3448275327682495
600.19838127593539,0.82758623361587524
601.17222713414048,0.89655172824859619
602.145883523197,-0.82758623361587524
603.11935048069972,0.96551722288131714
604.09262804424907,-0.034482758492231369
605.06571625142715,-0.82758623361587524
606.03861513981246,-0.62068963050842285
607.01132474697624,1.1034482717514038
607.98384511047152,-2.3448276519775391
608.95617626785679,-1.6896551847457886
609.92831825667054,-0.13793103396892548
610.90027111445124,-0.96551722288131714
611.87203487871375,-1.8620690107345581
612.84360958698562,-0.86206895112991333
613.81499527677443,1.3448275327682495
614.78619198556953,0.24137930572032928
615.75719975086758,-0.65517240762710571
616.7280186101525,-0.89655172824859619
617.69864860089183,0.068965516984462738
618.66908976055493,-0.034482758492231369
619.63934212659842,-1.5517241954803467
620.60940573646621,-2.0344827175140381
621.57928062759311,-1.6551724672317505
622.54896683741936,-0.89655172824859619
623.51846440335976,-0.4482758641242981
624.48777336282728,0.20689655840396881
625.45689375322763,1
626.42582561195377,0.48275861144065857
627.394568976395,-3.5172414779663086
628.363123883928,-0.31034481525421143
629.331490371922,-1.1379309892654419
630.299668477739,-0.4482758641242981
631.26765823873393,-1.7241379022598267
632.23545969224324,-0.65517240762710571
633.20307287561081,-0.20689655840396881
634.170497826155,-0.79310345649719238
635.137734581198,-0.72413790225982666
636.10478317805246,-1.7241379022598267
637.0716436540115,0.5517241358757019
638.03831604637162,-0.5517241358757019
639.004800392413,0.65517240762710571
639.97109672941588,-1.5862069129943848
640.9372050946422,-0.37931033968925476
641.90312552535215,-0.931034505367279
642.86885805879137,-0.79310345649719238
643.83440273220367,-1.5517241954803467
644.79975958282012,0.13793103396892548
645.76492864786451,-1.7241379022598267
646.72990996454973,-0.31034481525421143
647.69470357008322,-0.68965518474578857
648.6593095016633,0.931034505367279
649.6237277964774,0.27586206793785095
650.58795849170929,-0.24137930572032928
651.5520016245282,-0.86206895112991333
652.51585723209973,0.82758623361587524
653.4795253515731,0.5517241358757019
654.44300602009935,-4.5862069129943848
655.406299274815,1.1724138259887695
656.3694051528546,1.6206896305084229
657.33232369132747,-0.34482759237289429
658.29505492735188,0.62068963050842285
659.25759889803339,0.034482758492231369
660.21995564046847,0.41379311680793762
661.182125191739,-0.86206895112991333
662.14410758892154,-2.0344827175140381
663.10590286909064,-0.5517241358757019
664.067511069301,-1.7241379022598267
665.02893222660714,-0.34482759237289429
665.99016637806017,0.20689655840396881
666.95121356068557,0.31034481525421143
667.91207381151617,0.13793103396892548
668.87274716756838,-1.6206896305084229
669.83323366584955,-0.96551722288131714
670.7935333433652,-1.3103448152542114
671.75364623710266,0.68965518474578857
672.71357238405108,-2.6551723480224609
673.673311821185,-0.65517240762710571
674.63286458547191,-2.0689654350280762
675.59223071386987,0.31034481525421143
676.55141024332806,-0.27586206793785095
677.51040321079017,-1
678.46920965318714,-0.27586206793785095
679.42782960744807,-0.62068963050842285
680.38626311048392,0.62068963050842285
681.34451019920562,-2.2413792610168457
682.30257091051317,0.96551722288131714
683.26044528129387,-2.5172414779663086
684.21813334843318,-0.27586206793785095
685.17563514880567,-1.4137930870056152
686.13295071927132,0.517241358757019
687.0900800966956,-2.5172414779663086
688.04702331792032,-0.27586206793785095
689.00378041978729,-0.89655172824859619
689.96035143912923,2.0689654350280762
